vertex_index,distance,angle,elev,x,y,relief,velocity
0,0.00000000000000,317.21071991124523,334.578,-1023619.509,-1551103.772,39.086,2.202
1,2.92339925654722,294.16357464116953,335.680,-1023621.495,-1551101.627,38.820,2.202
2,5.57186660150139,253.54181185246281,336.875,-1023624.143,-1551101.575,39.109,2.202
3,9.24614853229995,232.41783248163085,336.961,-1023627.188,-1551103.632,39.414,2.202
4,11.78380501511146,228.86847062943011,337.891,-1023629.099,-1551105.301,39.781,2.202
5,14.32146149792297,260.79387331559320,339.414,-1023631.010,-1551106.970,40.375,2.202
6,18.71106312778790,292.71927600286455,341.180,-1023635.059,-1551105.275,40.984,2.202
7,23.10066475785014,292.97237224762875,342.922,-1023639.108,-1551103.579,41.227,2.202
8,25.73231157974442,293.22546848895558,343.359,-1023641.527,-1551102.542,41.156,2.202
9,28.36395840154689,293.88059935701159,344.250,-1023643.945,-1551101.504,41.313,2.202
10,31.20608612343199,274.36319224734763,345.117,-1023646.531,-1551100.324,41.250,2.202
11,33.07396562790299,265.39060002769543,345.633,-1023648.328,-1551100.833,41.250,2.202
12,35.69229589215542,313.86426232647494,346.172,-1023650.929,-1551100.532,40.938,2.202
13,39.32389842746881,314.16690701142790,346.820,-1023651.488,-1551096.944,40.867,2.202
14,41.50513634506682,280.53758635181475,347.164,-1023653.652,-1551096.671,40.336,2.202
15,45.90561783441404,289.61475705827155,348.055,-1023657.924,-1551095.615,40.016,2.202
16,48.70566646354300,294.93393112613546,348.820,-1023660.455,-1551094.416,40.563,2.202
17,52.35868324375402,317.48394881157208,349.484,-1023663.779,-1551092.900,40.727,2.202
18,55.33577280094996,330.37844853270462,350.102,-1023664.775,-1551090.095,41.008,2.202
19,58.78509930163326,302.14712473227752,351.195,-1023666.978,-1551087.441,40.977,2.202
20,60.01261569126502,269.31517534874405,351.359,-1023668.169,-1551087.144,40.969,2.202
21,62.22311632231490,270.57748565607255,351.313,-1023670.300,-1551087.729,40.961,2.202
22,64.20971121325030,280.17777667959672,351.789,-1023672.205,-1551087.165,40.914,2.202
23,65.83030256255874,259.85313351448519,351.789,-1023673.822,-1551087.056,40.914,2.202
24,68.60674027401220,278.83443641955876,352.211,-1023676.356,-1551088.191,40.383,2.202
25,70.84260296881386,322.62414347511782,352.844,-1023678.022,-1551086.701,39.922,2.202
26,74.17056269196294,307.34296444519771,353.773,-1023679.510,-1551083.724,39.922,2.202
27,78.22374516869679,266.60450218441309,354.750,-1023683.486,-1551082.934,38.914,2.202
28,79.82438651722268,266.06329023175704,355.203,-1023685.008,-1551083.429,39.234,2.202
29,83.20908655326944,289.43117005347955,356.023,-1023688.339,-1551082.832,38.992,2.202
30,86.42011027200815,298.72012297772557,356.461,-1023691.156,-1551081.290,38.852,2.202
31,88.75678991772480,284.35217762061961,356.891,-1023693.205,-1551080.167,38.797,2.202
32,91.00138940253316,278.09426112785064,357.164,-1023695.449,-1551080.168,38.664,2.202
33,93.83890081280694,304.44585108350981,357.695,-1023698.174,-1551079.375,38.195,2.202
34,96.80053600329798,302.19831873887625,357.797,-1023699.970,-1551077.020,38.195,2.202
35,97.93228779029540,266.34997217655240,358.195,-1023701.078,-1551076.790,37.594,2.202
36,99.92345036843396,250.58532963959948,358.516,-1023702.960,-1551077.440,37.328,2.202
37,101.84178742195910,271.08938320225099,358.531,-1023704.765,-1551078.089,37.484,2.202
38,103.81787950293126,303.03595430633317,358.578,-1023706.598,-1551077.350,37.250,2.202
39,105.85590243516533,326.63542194868165,358.344,-1023708.061,-1551075.932,37.023,2.202
40,108.27439578686098,302.12614495811926,358.789,-1023708.921,-1551073.671,37.023,2.202
41,112.41758293015654,249.01140083991359,359.227,-1023713.049,-1551074.027,37.164,2.202
42,113.97581586856565,206.90320730949435,360.055,-1023714.293,-1551074.966,36.695,2.202
43,117.07023476525895,197.46735055480465,359.570,-1023714.339,-1551078.060,36.695,2.202
44,119.26356751193372,234.10360761922581,359.570,-1023715.568,-1551079.877,36.695,2.202
45,121.04409154210467,276.57545631409209,359.813,-1023717.280,-1551080.363,36.180,2.202
46,123.69650637877162,289.74935160904852,360.273,-1023719.600,-1551079.077,36.172,2.202
47,125.00526440527285,263.86745409427220,360.563,-1023720.887,-1551078.839,35.844,2.202
48,126.35430971105851,246.60057277747251,360.906,-1023722.131,-1551079.360,35.664,2.202
49,127.63860464749814,258.48518357673959,360.906,-1023723.304,-1551079.884,35.664,2.202
50,129.16333738874133,280.66193597794461,361.211,-1023724.828,-1551079.856,35.609,2.202
51,131.54953847715561,286.07396305407701,361.617,-1023727.066,-1551079.029,35.539,2.202
52,133.71406790146946,284.44454982367796,361.813,-1023729.185,-1551078.584,35.172,1.326
53,134.70678002306329,266.04930767643691,362.008,-1023730.134,-1551078.293,34.977,1.326
54,138.75845388801676,242.90070981844616,362.039,-1023733.808,-1551080.002,34.742,1.326
55,141.73942917452456,250.67096615785945,362.641,-1023736.408,-1551081.459,34.336,1.326
56,144.94030157525631,265.47400694607535,362.883,-1023739.566,-1551081.981,33.969,1.326
57,148.53407897507611,294.11252250413366,363.703,-1023743.160,-1551081.960,32.836,1.326
58,150.85882457951794,326.38821380569090,363.984,-1023744.719,-1551080.235,32.313,1.326
59,154.36321343999114,305.86355965785975,364.773,-1023746.206,-1551077.062,32.523,1.326
60,155.81704898905124,278.78776825078603,364.773,-1023747.649,-1551076.889,32.523,1.326
61,158.34020971422470,278.78876912601146,365.453,-1023750.128,-1551076.419,31.641,1.326
62,159.79731975694983,270.70261653380419,365.453,-1023751.575,-1551076.245,31.641,1.326
63,161.68138696171644,269.20909527962795,365.555,-1023753.451,-1551076.423,31.445,1.326
64,164.52639693114867,258.55733049924964,365.711,-1023756.289,-1551076.233,30.461,1.326
65,166.75142109400480,251.91586455358251,366.023,-1023758.276,-1551077.233,30.039,1.326
66,168.70968807907747,271.81292272574541,366.203,-1023760.208,-1551077.555,29.719,1.326
67,171.51725865108267,279.57939422668420,366.680,-1023762.943,-1551076.920,29.211,1.326
68,173.43123353449653,274.96850962040372,366.914,-1023764.846,-1551076.717,28.844,1.326
69,174.61733721449875,297.70284423561168,367.125,-1023766.030,-1551076.637,28.406,1.326
70,177.07261617750063,315.45803714042978,367.242,-1023767.556,-1551074.714,28.563,1.326
71,180.11107533284002,311.49108502842176,367.492,-1023769.906,-1551072.787,28.508,1.326
72,182.29569293688559,310.33232058463534,368.133,-1023771.487,-1551071.280,28.531,1.326
73,183.29607727278480,297.85512678800956,368.344,-1023772.285,-1551070.677,28.250,1.326
74,185.13717259119628,281.25874230411671,368.586,-1023774.030,-1551070.088,28.039,1.326
75,187.29457296422197,284.66588876343786,369.188,-1023776.182,-1551069.943,27.734,1.326
76,188.79086806213564,317.58454298071553,369.188,-1023777.533,-1551069.299,27.734,1.326
77,190.79623940625885,305.40891680008934,369.438,-1023778.229,-1551067.419,27.555,1.326
78,192.49186416604465,277.95068463194889,369.438,-1023779.924,-1551067.385,27.555,1.326
79,194.60771938597881,305.81219601776348,369.523,-1023781.970,-1551066.846,27.125,1.326
80,197.34370428353711,318.18733870238361,370.086,-1023783.466,-1551064.555,27.148,1.326
81,199.17013811943883,303.65408804575037,370.445,-1023784.875,-1551063.393,27.453,1.326
82,202.42783671469849,317.28935795260895,371.148,-1023787.757,-1551061.874,28.008,1.326
83,203.78575353091412,344.19534428039390,371.242,-1023788.292,-1551060.626,27.859,1.326
84,204.93441377097224,329.04514774445636,371.289,-1023788.460,-1551059.490,27.930,1.326
85,206.05179841601753,279.95812314642012,371.289,-1023789.358,-1551058.825,27.930,1.326
86,209.07068537405385,249.41885907163083,371.313,-1023792.252,-1551059.686,27.273,1.326
87,212.19845663982221,249.18658055058992,371.008,-1023795.096,-1551060.988,27.125,1.326
88,214.06362043234589,287.40015714637866,371.266,-1023796.879,-1551061.534,27.008,1.326
89,215.55707784350008,306.10290287262245,371.266,-1023797.802,-1551060.360,27.008,1.326
90,216.86474135659699,278.26825267633797,372.125,-1023799.028,-1551059.905,27.633,1.326
91,219.09268279780289,292.24746683555787,371.891,-1023801.251,-1551060.054,27.883,1.326
92,221.44151907597811,331.08750943537757,372.961,-1023802.813,-1551058.299,27.984,1.326
93,223.13445850093316,308.84384583326522,373.000,-1023803.284,-1551056.673,28.219,1.326
94,223.99708684250805,263.35438456417330,373.242,-1023804.144,-1551056.615,28.375,1.326
95,226.75428658565971,256.32100182899075,373.500,-1023806.779,-1551057.428,28.281,1.326
96,228.92843483448092,274.51384838173095,373.453,-1023808.919,-1551057.814,27.938,1.326
97,232.05756010195128,297.65871580008962,373.547,-1023811.873,-1551056.782,27.719,1.326
98,234.19983542456148,319.32135132074876,373.836,-1023813.605,-1551055.521,28.086,1.326
99,236.99920106830979,318.39225619055378,374.141,-1023814.894,-1551053.036,28.227,1.326
100,238.85483875969155,302.16416636957069,374.633,-1023816.429,-1551051.993,28.273,1.326
101,240.81038849888299,300.38706159686058,374.781,-1023818.120,-1551051.011,28.406,1.326
102,243.44808121984403,316.61275310755838,375.047,-1023820.389,-1551049.666,28.727,1.326
103,245.22918974329829,346.76799502717677,375.047,-1023821.210,-1551048.086,28.727,1.326
104,248.33045681079753,351.05002982126774,375.453,-1023821.157,-1551044.985,29.234,1.326
105,250.85448204925603,328.42192990983352,375.688,-1023821.973,-1551042.596,29.305,1.326
106,253.00205486859289,299.00765268060013,376.133,-1023823.473,-1551041.059,29.508,1.326
107,255.88558774509863,279.06919054660762,376.391,-1023826.290,-1551040.444,29.563,1.326
108,258.33722611232878,277.23538111726594,376.359,-1023828.729,-1551040.195,29.711,1.326
109,262.41197030932796,283.82656003700970,376.898,-1023832.758,-1551039.583,30.781,1.326
110,265.02531888092705,293.73467026921321,376.898,-1023835.229,-1551038.732,31.094,1.326
111,266.88238447575685,297.93484807693579,377.430,-1023836.861,-1551037.847,32.117,1.326
112,267.96158694092367,319.78204519485826,377.430,-1023837.819,-1551037.350,32.117,1.326
113,270.68406404674050,303.60666397246661,377.844,-1023838.654,-1551034.759,33.070,1.326
114,272.41236003831631,269.45347719110293,377.805,-1023840.376,-1551034.907,32.664,1.326
115,274.62087240513745,303.14303423926799,377.852,-1023842.579,-1551034.759,32.469,1.326
116,275.75705473255874,320.83445584010212,378.219,-1023843.105,-1551033.752,33.727,1.326
117,277.90545770757871,310.39318039405572,378.359,-1023844.769,-1551032.393,33.297,1.326
118,279.95703996954256,323.31104552402184,378.773,-1023846.304,-1551031.032,33.977,1.326
119,282.85945070320895,307.75704556907277,379.000,-1023847.528,-1551028.401,34.898,0.446
120,284.35389773249267,274.86855083143621,378.898,-1023848.998,-1551028.130,35.180,0.446
121,286.10892951437410,264.80308673829057,378.938,-1023850.753,-1551028.151,35.539,0.446
122,288.09043460907554,253.53484319710904,379.180,-1023852.706,-1551028.485,35.297,0.446
123,290.30980851712559,255.80727393179268,379.547,-1023854.745,-1551029.361,34.648,0.446
124,292.35535966618892,254.98626108066620,379.977,-1023856.782,-1551029.544,34.055,0.446
125,294.33274488743876,254.76758543221189,380.367,-1023858.576,-1551030.376,33.273,0.446
126,298.17226001676892,264.80570862682504,380.805,-1023862.397,-1551030.749,33.195,0.446
127,302.01864464008099,254.48029030198001,381.180,-1023866.230,-1551031.072,32.508,0.446
128,304.48263077882666,251.33708223482469,381.930,-1023868.441,-1551032.161,31.836,0.446
129,307.18701179000482,262.32390539376576,382.094,-1023871.094,-1551032.681,31.922,0.446
130,312.10207593436337,263.59075481937060,382.594,-1023875.996,-1551033.046,32.039,0.446
131,314.89712530618186,259.59432218768421,383.438,-1023878.760,-1551033.462,31.891,0.446
132,317.66277980178586,261.23683852160138,383.773,-1023881.463,-1551034.048,31.328,0.446
133,320.32752288758826,260.96405966610797,383.992,-1023884.116,-1551034.294,30.531,0.446
134,321.35708903988825,250.77808024926597,383.992,-1023885.120,-1551034.522,30.531,0.446
135,324.65307730849628,244.56521923941625,384.477,-1023888.091,-1551035.949,29.984,0.446
136,326.92915752212053,249.70958909819569,384.914,-1023890.150,-1551036.918,29.555,0.446
137,329.38903178611986,264.86844986387996,385.219,-1023892.522,-1551037.570,29.445,0.446
138,333.04992417008606,274.04103608580493,385.664,-1023896.169,-1551037.245,28.672,0.446
139,335.71603279799780,262.21276298003966,386.086,-1023898.831,-1551037.106,28.336,0.446
140,338.13489016195552,261.08542928417563,386.414,-1023901.124,-1551037.876,27.883,0.446
141,339.59790180986164,283.80816551958532,386.750,-1023902.587,-1551037.857,27.625,0.446
142,341.33336648965411,299.25723256118846,386.891,-1023904.135,-1551037.072,27.352,0.446
143,343.06426888326467,295.39411158233781,386.891,-1023905.609,-1551036.165,27.352,0.446
144,345.83706894403008,281.50549561385742,387.164,-1023908.228,-1551035.254,27.508,0.446
145,347.54776870357290,273.84351788853786,387.164,-1023909.935,-1551035.140,27.508,0.446
146,350.77477122914968,273.27473778080815,388.219,-1023913.155,-1551034.923,26.828,0.446
147,354.89198364261028,282.25219511496698,388.242,-1023917.267,-1551034.729,26.313,0.446
148,356.35361870704639,296.12437265822041,388.438,-1023918.624,-1551034.186,26.313,0.446
149,359.12537185815660,296.38661133928196,389.070,-1023921.014,-1551032.782,26.367,0.446
150,362.03476614547958,278.15524205907451,389.625,-1023923.705,-1551031.676,26.555,0.446
151,364.00064527798946,270.97710049578677,389.891,-1023925.660,-1551031.882,26.406,0.446
152,365.75356850529857,297.98093502232530,390.086,-1023927.396,-1551031.639,25.922,0.446
153,366.99949552152640,326.46843511428955,390.414,-1023928.230,-1551030.714,25.703,0.446
154,369.27314926294702,315.05248894378536,390.711,-1023929.193,-1551028.654,25.781,0.446
155,371.08961073859808,268.44850607659896,391.242,-1023930.837,-1551027.882,25.938,0.446
156,374.17745625631346,257.78856789180179,391.016,-1023933.557,-1551029.344,25.531,0.446
157,375.84394170435951,281.92989019883618,391.273,-1023935.219,-1551029.232,25.508,0.446
158,378.77575488947889,265.56326680370950,391.555,-1023937.974,-1551028.229,25.586,0.446
159,380.51122158418303,239.72045038575499,392.000,-1023939.494,-1551029.067,25.609,0.446
160,382.24664711869951,244.29368551387529,392.477,-1023940.971,-1551029.978,25.656,0.446
161,384.33928946882384,263.08804196348893,392.648,-1023942.940,-1551030.685,25.648,0.446
162,387.62722324562429,286.80301990184745,393.328,-1023946.211,-1551030.346,25.617,0.446
163,389.30491124618072,298.55624753250623,393.875,-1023947.696,-1551029.567,25.617,0.446
164,392.95759606055782,298.66685423707338,394.789,-1023950.878,-1551027.772,25.305,0.446
165,394.76801067646483,272.68613789848644,395.102,-1023952.478,-1551026.925,25.328,0.446
166,397.43764257609286,253.58939520724221,395.375,-1023954.943,-1551027.948,25.383,0.446
167,399.59346643006222,265.38771347967150,395.305,-1023957.064,-1551028.333,25.461,0.446
168,401.25513777023593,296.68605734937091,395.695,-1023958.726,-1551028.302,25.563,0.446
169,403.70546955212114,311.34219684814190,396.234,-1023960.224,-1551026.363,25.797,0.446
170,405.74657766751551,264.22023676193641,396.492,-1023961.985,-1551025.331,25.797,0.446
171,409.07096551461711,249.37476907618259,396.844,-1023964.458,-1551027.552,25.828,0.446
172,410.53876914179898,280.40784284292869,396.844,-1023965.926,-1551027.535,25.828,0.446
173,414.16635887631850,304.09656412154771,397.492,-1023969.332,-1551026.286,25.445,1.901
174,415.58408668555734,294.80394699182870,397.828,-1023970.279,-1551025.232,25.484,1.901
175,417.65223243211602,265.45747501471766,398.211,-1023972.347,-1551025.176,25.641,1.901
176,418.47922833649358,273.51502256918627,398.211,-1023973.159,-1551025.328,25.641,1.901
177,420.83709433062518,294.16297196879134,398.531,-1023975.406,-1551024.613,25.813,1.901
178,424.54808630900590,292.36155529818291,399.445,-1023978.598,-1551022.720,26.078,1.901
179,427.17400353246467,284.06031907795460,399.656,-1023981.145,-1551022.083,26.242,1.901
180,429.79992075609294,264.64642372102531,400.016,-1023983.693,-1551021.445,26.188,1.901
181,432.58420679087391,261.36519349436026,400.367,-1023986.221,-1551022.611,25.953,1.901
182,434.47201060048286,269.80553567786274,400.844,-1023988.093,-1551022.365,25.977,1.901
183,436.83411031291416,269.51669750946155,401.000,-1023990.432,-1551022.689,26.258,1.901
184,441.30144143697072,288.36814588694244,401.125,-1023994.867,-1551022.151,26.242,1.901
185,442.95353473749464,299.72252592928862,401.617,-1023996.300,-1551021.329,26.352,1.901
186,445.85263133427958,279.82929569316394,402.547,-1023998.821,-1551019.896,26.461,1.901
187,446.88118117218670,249.93240000649797,402.031,-1023999.834,-1551020.074,26.336,1.901
188,447.82809773234470,251.21659433240652,402.172,-1024000.652,-1551020.550,26.367,1.901
189,449.69815044218058,289.80046677068123,402.539,-1024002.507,-1551020.791,26.563,1.901
190,451.12513311696114,307.06847103950366,403.094,-1024003.480,-1551019.747,26.648,1.901
191,452.26639243440496,282.75604267814816,403.063,-1024004.495,-1551019.226,26.852,1.901
192,456.14445962415687,275.90151840456826,403.609,-1024008.372,-1551019.336,26.789,1.901
193,458.28404495123874,281.80289397028463,404.055,-1024010.453,-1551018.839,26.727,1.901
194,460.04456352350712,278.24439525231099,404.477,-1024012.186,-1551018.528,26.664,1.901
195,461.85532614676066,282.67565473449605,404.477,-1024013.986,-1551018.329,26.664,1.901
196,463.94214506930842,280.93598309223216,404.820,-1024015.958,-1551017.648,26.766,1.901
197,466.15546225144521,280.60355326677876,405.539,-1024018.169,-1551017.539,26.734,1.901
198,469.45172538987822,292.55251320661921,405.664,-1024021.297,-1551016.500,26.664,1.901
199,471.29255757552818,285.28509129945104,405.961,-1024022.941,-1551015.672,26.484,1.901
200,472.63744955464182,267.34164332521118,406.148,-1024024.283,-1551015.582,26.633,1.901
201,474.76128410903601,270.39766479304842,406.375,-1024026.380,-1551015.920,26.352,1.901
202,476.25453646691744,282.46632954256336,406.375,-1024027.851,-1551015.662,26.352,1.901
203,478.11301555295262,291.74308654380070,406.680,-1024029.646,-1551015.182,26.398,1.901
204,481.49325192141254,320.28108323281879,407.539,-1024032.616,-1551013.568,26.555,1.901
205,483.26175409204006,320.47763989306299,407.727,-1024033.161,-1551011.886,26.633,1.901
206,485.62515627033656,294.46436212706521,408.094,-1024035.230,-1551010.743,26.547,1.901
207,488.49920181225394,277.95859895608174,408.570,-1024037.931,-1551009.759,26.578,1.901
208,490.33334144259845,248.83139124264568,408.758,-1024039.760,-1551009.891,26.516,1.901
209,491.89921655383432,256.54319288411119,408.578,-1024040.990,-1551010.860,26.594,1.901
210,496.08298188406189,291.31482719753615,409.102,-1024045.093,-1551010.039,26.219,1.901
211,498.28014493847667,295.24952205363360,409.391,-1024046.970,-1551008.897,25.977,1.901
212,502.48319907667877,287.33937148328789,410.203,-1024050.939,-1551007.516,25.680,1.901
213,505.96460725831361,285.53978767938281,410.453,-1024054.294,-1551006.586,25.883,1.901
214,509.38835765173229,284.93061045407109,410.797,-1024057.592,-1551005.666,25.906,1.901
215,513.49733286728474,288.70467986812923,411.242,-1024061.574,-1551004.653,25.469,1.901
216,517.42415851923602,289.45089625337664,412.008,-1024065.185,-1551003.110,25.188,1.901
217,519.88035031592131,286.70816121512945,412.016,-1024067.549,-1551002.442,25.328,1.901
218,521.84158164558437,284.52989172357309,412.602,-1024069.418,-1551001.848,25.516,1.901
219,523.78765190662136,287.19101096603981,412.727,-1024071.325,-1551001.463,25.570,1.901
220,527.60259086298629,306.86828427887929,413.398,-1024074.838,-1550999.974,25.313,1.901
221,529.58071619333714,321.63855680510363,413.867,-1024076.089,-1550998.442,24.984,1.901
222,532.80062364325022,302.39351299545569,414.133,-1024078.049,-1550995.887,25.023,1.901
223,534.04017983535653,255.12733966498399,414.133,-1024079.260,-1550995.623,25.023,1.901
224,535.11304592690931,248.57433089902844,414.148,-1024080.057,-1550996.341,24.883,1.901
