vertex_index,distance,angle,elev,x,y,relief,velocity
0,0.00000000000000,256.51066869381754,351.250,-1023745.680,-1550939.375,35.906,2.608
1,3.97732155050574,256.51066869218681,353.156,-1023749.547,-1550940.303,36.656,2.608
2,7.95464310106579,272.83785305503488,353.883,-1023753.415,-1550941.230,37.227,2.608
3,12.36679745371647,274.15252561240482,354.031,-1023757.583,-1550939.782,37.727,2.608
4,15.52624917747404,215.53845207266212,354.273,-1023760.685,-1550940.377,37.844,2.608
5,17.51894774555536,155.06544487757103,354.797,-1023760.406,-1550942.350,37.844,2.608
6,19.61024505207769,166.37877594629188,354.398,-1023759.012,-1550943.909,37.898,2.608
7,22.68625441083776,192.06087354499300,354.547,-1023759.785,-1550946.886,37.914,2.608
8,25.41757123936762,162.42201753183519,355.508,-1023760.239,-1550949.580,37.844,2.608
9,28.52699521124700,155.74388490026467,354.922,-1023758.051,-1550951.789,37.914,2.608
10,31.15424718788414,176.20192934954304,355.695,-1023757.877,-1550954.411,37.727,2.608
11,33.78149916475361,195.74077130472287,356.445,-1023757.703,-1550957.032,37.727,2.608
12,37.17468071899531,242.00146374654517,357.664,-1023759.663,-1550959.802,37.914,2.608
13,41.16847726350000,272.60942288664063,358.844,-1023763.656,-1550959.891,37.461,2.608
14,44.94580650913851,288.29515616582694,359.969,-1023767.409,-1550959.464,36.617,2.608
15,47.11661205639922,303.37904904625884,360.664,-1023769.287,-1550958.375,36.430,2.608
16,49.86564980276652,303.27985593637192,360.430,-1023771.492,-1550956.734,36.578,2.608
17,51.94787563232270,270.82976017607751,360.172,-1023773.297,-1550955.696,36.922,2.608
18,55.32030908708698,270.04596762538506,361.664,-1023776.268,-1550957.292,37.078,2.608
19,58.42872833747256,315.73378205209781,360.773,-1023779.004,-1550955.817,37.172,2.608
20,62.13706095551302,312.56671528371453,360.773,-1023780.680,-1550952.508,37.023,2.608
21,64.52471861389832,281.02486886009484,361.195,-1023782.894,-1550951.614,36.828,2.608
22,67.91026430991438,267.05760644325329,362.297,-1023786.279,-1550951.611,36.531,2.608
23,71.10419829091416,280.89609658136612,362.773,-1023789.456,-1550951.941,36.859,2.608
24,74.60688904685996,296.29470244226479,363.328,-1023792.557,-1550950.311,37.539,2.608
25,77.09874920707630,271.02285060723500,363.336,-1023794.818,-1550949.264,38.172,2.608
26,79.93514578488831,260.35445740199293,363.969,-1023797.432,-1550950.364,38.508,2.608
27,82.38355234093990,275.19626868754756,364.313,-1023799.876,-1550950.213,39.063,2.608
28,86.33328197764776,274.14158732502983,364.586,-1023803.797,-1550949.741,39.859,2.608
29,88.30531768540096,267.02468607752439,364.664,-1023805.769,-1550949.692,39.875,2.608
30,90.28349552200655,281.58268604293943,365.078,-1023807.731,-1550949.946,39.469,2.608
31,93.59615161595570,300.52721361671638,365.867,-1023810.584,-1550948.263,38.805,2.608
32,96.90880771000514,322.24003197083039,366.398,-1023813.438,-1550946.580,38.656,2.608
33,101.87239869648930,315.73083797180357,368.039,-1023814.810,-1550941.810,38.766,2.608
34,103.54073278381594,272.64623670043403,368.188,-1023816.401,-1550941.308,39.094,2.608
35,106.50337979973352,261.02049708426114,368.055,-1023819.296,-1550941.935,39.445,2.608
36,109.20700564691464,243.74934237589201,367.633,-1023821.986,-1550942.206,39.445,2.608
37,112.32975116391403,214.37045452957616,367.781,-1023824.126,-1550944.480,39.086,2.608
38,115.51129816259353,228.28606321486612,367.781,-1023825.495,-1550947.352,39.086,2.608
39,117.72811830952053,265.52202260088865,368.688,-1023827.592,-1550948.071,38.492,2.608
40,119.95413151057755,303.32631572807503,369.117,-1023829.785,-1550947.686,38.398,2.608
41,122.71281943675238,336.46708392927661,369.641,-1023831.300,-1550945.380,38.172,2.608
42,124.70031967724876,7.02838075687851,369.531,-1023831.772,-1550943.450,38.172,2.608
43,126.51257523965037,341.56355584451251,369.531,-1023830.927,-1550941.847,38.172,2.608
44,128.24478372909857,286.15813837102951,369.719,-1023832.493,-1550941.106,38.664,2.608
45,132.49959113090975,296.60491579211879,370.695,-1023836.716,-1550940.588,38.250,2.608
46,135.35332062705589,301.36497893968857,371.008,-1023838.690,-1550938.528,37.320,2.608
47,137.15466331568481,279.78992460582759,371.234,-1023840.417,-1550938.016,36.945,2.608
48,139.29511298998665,271.17601119325792,371.633,-1023842.555,-1550937.901,36.938,2.608
49,141.86310565671681,299.00594147401813,371.656,-1023845.123,-1550937.933,37.039,2.608
50,143.46889195321342,294.96255195276325,371.656,-1023845.956,-1550936.561,37.039,2.608
51,145.35487766669820,278.40989244384457,371.930,-1023847.820,-1550936.849,37.133,1.480
52,147.67557277387860,301.58535798047620,372.625,-1023849.913,-1550935.846,36.992,1.480
53,149.60263822371905,312.36787345541518,373.641,-1023851.440,-1550934.671,36.828,1.480
54,152.19276250282132,315.80784405190713,374.445,-1023853.201,-1550932.771,36.492,1.480
55,154.41167549946101,292.15410548480793,374.492,-1023854.785,-1550931.218,36.125,1.480
56,156.35377612493397,272.61223218561963,374.719,-1023856.727,-1550931.222,35.867,1.480
57,158.97644394051065,285.47997878886054,374.961,-1023859.339,-1550930.978,35.750,1.480
58,161.27546091495827,309.86305135600486,375.281,-1023861.412,-1550929.984,35.867,1.480
59,162.66298788285971,317.18755027723529,375.570,-1023862.225,-1550928.860,35.664,1.480
60,164.59367989352245,311.27671973607130,375.391,-1023863.698,-1550927.612,35.664,1.480
61,167.41749463387356,303.71042143386779,375.547,-1023865.787,-1550925.712,35.570,1.480
62,170.15631605760180,306.51844453991720,376.352,-1023868.267,-1550924.549,35.516,1.480
63,172.59112196952464,330.86935394698941,376.219,-1023869.899,-1550922.742,35.516,1.480
64,174.20427840027963,322.29687263257648,376.773,-1023870.348,-1550921.193,35.133,1.480
65,175.51875336166239,285.30553492801999,376.773,-1023871.478,-1550920.520,35.133,1.480
66,177.29135615886000,279.87762381060207,377.039,-1023873.250,-1550920.525,34.984,1.480
67,179.79537315637677,306.88999371659855,377.477,-1023875.605,-1550919.672,35.039,1.480
68,182.04667920719464,289.40256638819341,377.227,-1023876.932,-1550917.854,35.203,1.480
69,183.96781162809216,295.58513509318249,378.336,-1023878.787,-1550918.353,35.406,1.480
70,186.07800389060256,348.85523511714632,377.773,-1023879.637,-1550916.422,35.406,1.480
71,188.51096652135399,359.25778820999693,377.742,-1023879.575,-1550913.990,35.406,1.480
72,191.46267784243335,341.56708115376244,378.070,-1023879.727,-1550911.042,35.406,1.480
73,193.01557236841265,292.25313210650057,378.516,-1023880.593,-1550909.753,35.289,1.480
74,196.11910853142433,239.81598853719325,378.102,-1023883.634,-1550910.377,35.313,1.480
75,198.54173308134423,240.85487768692127,378.422,-1023885.230,-1550912.199,35.055,1.480
76,200.25047432138905,269.99423950598720,378.891,-1023886.915,-1550912.481,34.836,1.480
77,202.38744572891295,308.60845624035261,379.602,-1023889.023,-1550912.129,34.828,1.480
78,204.57383579536227,334.93808486443925,379.180,-1023889.852,-1550910.105,34.828,1.480
79,208.37992141476332,320.24411022408168,379.664,-1023891.630,-1550906.740,34.922,1.480
80,211.37794557539203,297.75419816171745,380.227,-1023893.981,-1550904.881,35.078,1.480
81,213.51291202412477,273.39854815171208,380.477,-1023896.021,-1550904.250,35.336,1.480
82,216.21330164804328,293.91822733256032,380.664,-1023898.677,-1550904.737,35.438,1.480
83,218.59769616157615,321.71869298568936,380.359,-1023899.933,-1550902.710,35.438,1.480
84,219.60041436146204,302.37567368211427,380.695,-1023900.639,-1550901.998,35.258,1.480
85,221.54847628255084,303.34979886660307,381.008,-1023902.475,-1550901.347,35.000,1.480
86,224.63484310556021,287.82953789282124,381.484,-1023904.574,-1550899.083,34.883,1.480
87,226.79964867621760,242.75008853939147,381.797,-1023906.695,-1550899.515,35.094,1.480
88,228.34688744881967,239.96665247562223,381.977,-1023907.827,-1550900.570,35.094,1.480
89,231.06721533000305,272.94001632710757,383.258,-1023910.427,-1550901.369,35.078,1.480
90,232.44017624812457,318.66684988733999,383.258,-1023911.691,-1550900.834,35.078,1.480
91,234.73785879230715,324.77021503358031,383.039,-1023912.310,-1550898.621,35.141,1.480
92,236.19231946338579,302.49524022019529,382.844,-1023913.499,-1550897.783,35.141,1.480
93,238.06448380906059,277.06631664232356,383.109,-1023915.123,-1550896.852,35.250,1.480
94,239.93674931185160,230.35434648429833,383.328,-1023916.926,-1550897.359,35.242,1.480
95,240.99326994865632,252.04920828391653,383.484,-1023917.396,-1550898.305,35.242,1.480
96,243.22330649822467,300.13597478267019,383.828,-1023919.370,-1550897.268,35.320,1.480
97,245.78309099611104,300.46055406395794,384.273,-1023921.527,-1550895.890,35.430,1.480
98,247.24727643037761,325.23792533167148,384.781,-1023922.816,-1550895.195,35.125,1.480
99,248.59573243819972,343.88036879563344,384.820,-1023923.000,-1550893.859,35.125,1.480
100,250.54147828745715,313.18961957491581,384.820,-1023923.803,-1550892.087,35.125,1.480
101,252.40597090889591,290.27202075387191,385.336,-1023925.547,-1550891.426,34.547,1.480
102,255.90769833983083,308.51889607341917,386.484,-1023928.842,-1550890.240,34.609,1.480
103,258.22315158474788,345.03800203754741,386.867,-1023930.095,-1550888.293,34.594,1.480
104,260.49172561438849,354.40606735563642,386.477,-1023929.982,-1550886.027,34.609,1.480
105,263.25237507669840,320.32705877605309,387.086,-1023930.651,-1550883.349,34.594,1.480
106,266.45122479692930,289.27906239413073,386.984,-1023933.558,-1550882.013,34.547,1.480
107,270.13677216610870,289.28091109924583,387.438,-1023937.136,-1550881.129,35.063,1.480
108,273.33044342208063,301.02518788638383,387.688,-1023940.038,-1550879.796,35.055,1.480
109,276.35748428157501,311.41214588726160,388.031,-1023942.444,-1550877.958,34.945,1.480
110,279.61200321125403,307.99478364253804,388.984,-1023944.726,-1550875.639,34.875,1.480
111,281.77065256338682,302.85055182512150,389.313,-1023946.586,-1550874.542,34.828,1.480
112,284.73765937506363,295.32147489994787,390.430,-1023949.011,-1550872.833,34.898,1.480
113,288.18595172433635,287.51482657285652,390.727,-1023952.334,-1550871.913,35.070,1.442
114,290.77389703526848,293.97936852462720,390.711,-1023954.773,-1550871.047,34.961,1.442
115,294.22186740083680,300.39144810282943,391.125,-1023957.806,-1550869.407,35.117,1.442
116,298.98893715789097,316.77223217504945,391.828,-1023961.832,-1550866.854,35.352,1.442
117,302.27466825508969,345.16436258727538,393.047,-1023963.417,-1550863.976,35.445,1.442
118,305.14385162965112,340.67953842999503,393.680,-1023963.459,-1550861.107,35.445,1.442
119,306.53283877192922,291.94341018551404,393.727,-1023964.310,-1550860.009,35.297,1.442
120,309.31758004319551,267.55644469634433,393.852,-1023967.065,-1550860.412,35.258,1.442
121,311.74141474767140,295.67159920468652,394.320,-1023969.485,-1550860.267,35.117,2.537
122,313.57876063780145,353.22989115819354,395.063,-1023970.716,-1550858.903,35.398,2.537
123,314.86317726189549,33.30505196155689,395.445,-1023970.103,-1550857.775,35.398,2.537
124,316.78252381901797,21.12310935893411,394.992,-1023968.919,-1550856.264,35.117,2.537
125,318.75124629214059,353.45727268339260,395.164,-1023968.776,-1550854.301,35.117,2.537
126,321.14108430455008,340.97961618133502,395.375,-1023969.485,-1550852.018,35.117,2.537
127,322.60015027759471,341.05889590878348,395.672,-1023970.002,-1550850.654,35.398,2.537
128,325.65593883594545,317.83771322315533,396.648,-1023970.901,-1550847.733,35.398,2.537
129,328.65352926606243,291.13571364908313,396.531,-1023973.665,-1550846.573,35.688,2.537
130,330.60034453787927,277.97527521038967,396.906,-1023975.500,-1550845.923,35.625,2.537
131,332.18762460878679,277.42492397393693,396.734,-1023977.084,-1550846.021,35.555,2.537
132,334.81556048803765,301.21386466125153,396.891,-1023979.578,-1550845.192,35.594,2.537
133,337.46469533350285,313.40801646691222,397.328,-1023981.483,-1550843.351,35.508,2.537
134,340.10714689503334,304.71053005278230,398.039,-1023983.422,-1550841.556,35.352,2.537
135,342.46797444966705,295.51463117421514,398.523,-1023985.532,-1550840.497,35.555,2.537
136,344.96329159004028,287.05271657190320,399.734,-1023987.805,-1550839.467,35.609,2.537
137,347.81101168091300,273.17813249613971,399.563,-1023990.612,-1550838.986,35.617,2.537
138,349.67995995331421,276.90555269550248,399.258,-1023992.477,-1550839.096,35.328,2.537
139,352.31468525444495,298.54977672089319,399.133,-1023994.995,-1550838.318,35.109,2.537
140,354.41556619573925,312.27874302483849,399.695,-1023996.606,-1550836.970,34.797,2.537
141,355.83049481344312,300.69263062438779,400.688,-1023997.613,-1550835.976,34.797,2.537
142,357.67106920341371,279.47504665152098,400.813,-1023999.375,-1550835.445,34.789,2.537
143,360.44500741970006,284.82612844311882,401.242,-1024002.147,-1550835.339,34.617,2.537
144,363.90473766893967,299.45126317520072,402.227,-1024005.217,-1550833.744,34.656,2.537
145,366.58283536829759,295.34199821034383,402.406,-1024007.502,-1550832.347,34.727,2.537
146,368.27286665926999,285.74541484705168,403.594,-1024009.098,-1550831.790,34.680,2.537
147,369.90951225236643,269.10024710737468,403.805,-1024010.697,-1550831.442,34.961,2.537
148,372.73662191451803,257.39440944247690,403.000,-1024013.439,-1550832.129,35.391,2.537
149,376.40693839577750,258.50738384800707,403.227,-1024017.040,-1550832.839,35.938,2.537
150,380.02754390353402,244.48119084359936,403.617,-1024020.584,-1550833.581,35.109,2.537
151,382.11422227405734,238.85529864345844,403.664,-1024022.201,-1550834.900,34.617,2.537
152,383.37351588415282,254.57663330898399,403.664,-1024023.359,-1550835.394,34.617,2.537
153,385.78883204719750,251.50561819628143,404.359,-1024025.753,-1550835.720,34.398,2.537
154,388.26030747871408,231.96371804030272,405.008,-1024027.910,-1550836.927,34.664,2.537
155,390.03329590063623,233.59151336343331,405.289,-1024029.122,-1550838.220,34.992,2.537
156,391.50136263648398,264.61983671667247,405.844,-1024030.442,-1550838.863,34.961,2.537
157,392.86920883639078,275.33492984134745,405.844,-1024031.762,-1550838.504,34.961,2.537
158,394.69572691517538,259.54783383687908,406.703,-1024033.583,-1550838.649,35.203,2.537
159,397.52175934167491,246.94767425275424,408.180,-1024036.294,-1550839.445,34.773,2.537
160,401.94483880153479,241.80124755186847,409.109,-1024040.135,-1550841.639,33.930,2.537
161,405.16002726266447,244.32458744374551,409.469,-1024043.008,-1550843.082,33.719,2.537
162,407.36214354336994,223.70187346942035,409.633,-1024045.009,-1550844.002,33.414,2.537
163,409.13607362742704,208.69662172401436,409.633,-1024045.676,-1550845.645,33.414,2.537
164,411.03323730168927,214.05074040791757,410.570,-1024046.773,-1550847.194,32.633,2.537
165,412.35443662869193,198.61409410181616,410.523,-1024047.488,-1550848.304,32.633,2.537
166,414.15468536780088,193.49172262851732,410.617,-1024047.627,-1550850.099,32.633,2.537
167,415.38639083358203,247.47694426212036,411.398,-1024048.100,-1550851.237,32.289,2.537
168,417.24553774326102,289.53963832872546,411.398,-1024049.819,-1550850.528,32.289,2.537
169,419.28014806715998,273.99757707693044,412.867,-1024051.768,-1550849.944,32.273,2.537
170,421.22562221863200,244.77237893946040,413.117,-1024053.691,-1550850.238,32.406,2.537
171,424.58638164930744,241.26913098646713,413.898,-1024056.197,-1550852.477,32.188,2.537
172,426.61654433676870,285.39604524482667,414.438,-1024058.152,-1550853.026,32.047,2.537
173,427.80478761473040,337.61882981652349,414.438,-1024058.970,-1550852.164,32.047,2.537
174,429.18159145999056,342.12869554772874,414.414,-1024059.000,-1550850.788,32.047,2.537
175,430.86131862150381,304.12033313904976,414.961,-1024059.951,-1550849.403,32.047,2.537
176,431.93228620603770,259.77143717000990,415.547,-1024060.996,-1550849.167,31.992,2.537
177,433.81409623740774,221.63109392798671,415.594,-1024062.570,-1550850.197,31.867,2.537
178,436.16869133363741,221.43135950214824,415.375,-1024063.620,-1550852.305,31.867,2.537
179,437.60177221164855,255.14835602355359,415.836,-1024064.813,-1550853.098,31.906,2.537
180,439.50129161096919,302.76548555674725,416.602,-1024066.708,-1550852.969,31.969,2.537
181,441.32309546675077,317.23610487208697,416.930,-1024067.574,-1550851.366,31.969,2.537
182,444.17273510924355,307.25299527453058,417.750,-1024069.968,-1550849.821,32.227,2.537
183,446.22184595703374,295.11273873310739,418.273,-1024071.499,-1550848.459,32.406,2.537
184,447.12846513387677,241.48006706838811,418.672,-1024072.395,-1550848.324,32.164,2.537
185,448.42667057820114,204.16699152217743,418.672,-1024072.932,-1550849.506,32.164,2.537
186,449.66629535588686,217.49855678217625,417.906,-1024073.435,-1550850.639,32.164,2.537
187,451.10919050697265,225.76111416664725,418.383,-1024074.557,-1550851.546,31.750,2.537
188,452.84840099864795,275.44805382484685,418.094,-1024075.685,-1550852.869,31.750,2.537
189,454.19960711093665,303.85536931985928,418.648,-1024076.352,-1550851.694,31.453,2.537
190,455.30925469033406,285.57822216099800,418.648,-1024077.453,-1550851.554,31.453,2.537
191,456.78360315866712,289.17620802514546,418.977,-1024078.801,-1550850.956,31.242,2.537
192,459.06595277453431,294.13694485513236,419.156,-1024081.011,-1550850.386,30.992,2.537
193,461.49840422935330,303.19419348888704,419.477,-1024083.032,-1550849.033,31.180,2.537
194,464.04767922645453,302.29011844187420,419.813,-1024085.180,-1550847.660,31.305,2.537
195,465.09085784785930,317.38378777554163,419.711,-1024086.065,-1550847.107,31.352,2.537
196,466.21021955168578,316.49101115234248,419.711,-1024086.577,-1550846.112,31.352,2.537
197,467.54571059990690,296.34082817259656,420.352,-1024087.731,-1550845.440,31.352,3.192
198,469.37963539198159,311.65571183799926,420.398,-1024089.426,-1550844.739,31.578,3.192
199,471.90666206515249,314.95855139008586,420.969,-1024090.657,-1550842.532,31.930,3.192
200,473.53510402242392,286.53249427876364,422.008,-1024092.080,-1550841.741,32.133,3.192
201,475.17688817175218,260.51287356592917,422.008,-1024093.718,-1550841.627,32.133,3.192
202,477.03991205538642,252.60417330880267,421.539,-1024095.433,-1550842.354,32.102,3.192
203,478.72048131422656,264.83173077997242,421.664,-1024097.078,-1550842.698,31.820,3.192
204,480.72295786738766,276.96999389442124,421.516,-1024099.080,-1550842.646,31.625,3.192
205,482.38654232976160,293.81092298520036,421.430,-1024100.704,-1550842.287,31.266,3.192
206,484.01890554995737,293.96055672631013,422.008,-1024102.039,-1550841.347,31.125,3.192
207,485.54942400916747,295.87303383238037,422.008,-1024103.531,-1550841.009,31.125,3.192
208,487.29871806161606,292.79613128556599,422.914,-1024104.891,-1550839.909,31.039,3.192
209,489.25005016425007,290.88366318044649,423.141,-1024106.829,-1550839.684,30.641,3.192
210,490.82298156907223,308.26313035795459,423.430,-1024108.115,-1550838.778,30.359,3.192
211,492.98567085662631,317.29711176722469,424.141,-1024109.739,-1550837.349,30.359,3.192
212,495.05437399782170,313.17897969383387,425.203,-1024110.977,-1550835.692,30.047,3.192
213,496.68858550792095,290.97223609336737,425.234,-1024112.345,-1550834.799,29.625,3.192
214,497.60865944318726,272.63426024211026,425.234,-1024113.255,-1550834.658,29.625,3.192
215,499.65834020954281,266.56674942778125,425.031,-1024115.300,-1550834.785,29.719,3.192
216,501.62268404401078,274.95555887025478,424.734,-1024117.261,-1550834.899,29.539,3.192
217,503.64540244101102,283.09012028733986,424.570,-1024119.230,-1550834.436,28.891,3.192
218,504.72147122808099,310.56789665561257,424.914,-1024120.279,-1550834.195,27.680,3.192
219,505.68151783597432,1.67816416792063,425.445,-1024120.636,-1550833.303,27.680,3.192
220,507.51301065523319,7.92564542842822,425.945,-1024119.857,-1550831.646,28.953,3.192
221,508.57478559234050,323.38562202115878,425.984,-1024120.029,-1550830.598,27.680,3.192
222,510.05334445763759,295.91192197830577,426.469,-1024121.357,-1550829.948,27.680,3.192
223,511.82919936132038,306.63876033952585,426.367,-1024122.957,-1550829.177,26.906,3.192
224,513.73112760780771,325.99041331542321,426.539,-1024124.240,-1550827.774,26.570,3.192
