vertex_index,distance,angle,elev,x,y,relief,velocity
0,0.00000000000000,70.85750613495594,320.930,-1024001.585,-1551710.652,56.250,0.690
1,2.51639204354970,33.65020941517889,321.914,-1023999.208,-1551709.827,56.906,0.690
2,5.89198785912264,356.44291269540184,322.383,-1023999.417,-1551706.458,57.586,0.690
3,9.26758367469558,351.52285909893828,322.891,-1023999.626,-1551703.089,58.563,0.690
4,12.78035912196447,346.60280550295840,322.836,-1024000.440,-1551699.672,59.656,0.690
5,16.29313456897990,340.56997991477800,323.281,-1024001.254,-1551696.255,60.328,0.690
6,21.09134174423054,311.16519658154533,324.977,-1024003.317,-1551691.923,61.938,0.690
7,23.27637903687495,272.00498868995851,325.227,-1024005.398,-1551691.255,61.938,0.690
8,25.86699333197237,256.21673854074652,325.539,-1024007.914,-1551691.872,61.938,0.690
9,28.45760762723831,241.30911412669428,325.680,-1024010.430,-1551692.489,61.328,0.690
10,31.60263191571722,251.23833499943444,324.984,-1024012.707,-1551694.658,60.805,0.690
11,33.55411537211682,322.02188572770467,325.000,-1024014.648,-1551694.452,60.805,0.690
12,36.69232609187183,15.34196123930071,325.773,-1024014.213,-1551691.344,61.938,0.690
13,40.29151082235740,348.80912120974835,326.047,-1024012.823,-1551688.024,62.320,0.690
14,43.07416750320618,287.04737599229651,325.344,-1024014.794,-1551686.059,62.758,0.690
15,47.54214020409496,259.19184087099484,325.125,-1024019.183,-1551686.897,62.758,0.690
16,52.01011290514176,286.92087872583397,326.977,-1024023.571,-1551687.735,62.758,0.690
17,54.36477259122434,296.99166599959136,328.234,-1024025.246,-1551686.080,62.352,0.690
18,57.10043690710584,293.85992002601574,328.477,-1024027.946,-1551685.637,62.180,0.690
19,61.31418287652212,314.44602584334007,331.188,-1024031.249,-1551683.020,61.914,0.690
20,64.24621767114834,320.50562705126276,333.297,-1024033.114,-1551680.757,62.336,0.690
21,67.17825246552088,320.18647046989776,335.047,-1024034.978,-1551678.495,62.836,0.690
22,71.68162633096706,314.61742395135332,337.133,-1024037.881,-1551675.052,63.656,0.690
23,75.73508677456849,287.61185029901196,339.633,-1024041.015,-1551672.481,64.234,0.690
24,77.87814498444457,256.46561358507353,339.953,-1024043.152,-1551672.635,64.031,0.690
25,81.00573961425226,255.32581991055633,340.492,-1024046.033,-1551673.854,63.703,0.690
26,83.58885607980557,263.57657923281880,340.430,-1024048.600,-1551674.143,63.055,0.690
27,86.17197254538490,275.75141764616933,340.758,-1024051.167,-1551674.432,62.992,0.690
28,88.65512172322124,312.43394086818830,341.461,-1024053.529,-1551673.667,63.156,0.690
29,90.19991060385841,334.07204806790025,341.789,-1024054.134,-1551672.246,62.359,0.690
30,91.55145689059015,321.59020778284173,341.852,-1024054.785,-1551671.062,63.039,0.690
31,93.99911152382457,311.21862384062678,341.867,-1024056.605,-1551669.425,63.117,0.690
32,96.75046629324942,314.41689606134668,342.633,-1024058.698,-1551667.639,62.891,0.690
33,98.60933037924099,339.63288382215029,342.633,-1024059.933,-1551666.250,62.891,0.690
34,100.56854739650556,25.16055794422852,342.727,-1024059.903,-1551664.291,63.219,0.690
35,102.39941908785480,80.56849346100132,343.023,-1024058.512,-1551663.100,63.891,0.690
36,105.22307182825529,118.46063622944168,342.547,-1024055.888,-1551664.144,64.469,0.690
37,106.62140527866498,106.65598679611570,342.547,-1024054.746,-1551664.951,64.469,0.690
38,109.01410014712233,75.60667916626244,342.406,-1024052.355,-1551664.871,65.266,0.690
39,111.57592814467344,38.53228513981962,342.227,-1024050.070,-1551663.713,66.391,0.690
40,113.03716058441896,351.82796895507431,341.859,-1024049.717,-1551662.295,66.453,0.690
41,114.31106758402930,312.60823891944057,341.906,-1024050.360,-1551661.195,67.086,0.690
42,116.12339970217302,313.31037699873747,341.906,-1024051.996,-1551660.414,67.086,0.690
43,118.68035518297700,354.06402984874512,342.273,-1024053.231,-1551658.175,67.078,0.690
44,121.12984462182098,29.46378705880042,343.352,-1024052.514,-1551655.833,67.633,0.690
45,125.09509278698233,22.61532700471179,343.461,-1024049.865,-1551652.882,67.242,0.690
46,126.17130563295525,337.20550541377139,344.586,-1024049.803,-1551651.808,66.148,0.690
47,127.72707424786294,327.07208578198129,344.719,-1024050.976,-1551650.785,66.148,0.690
48,129.09190595945734,310.49804883351902,345.359,-1024051.373,-1551649.480,64.438,0.690
49,131.15892005378126,265.92704275208899,344.984,-1024053.421,-1551649.194,64.438,0.690
50,133.48226149065533,262.24922223471663,345.000,-1024055.653,-1551649.838,64.438,0.690
51,135.62151648928520,281.67843313527482,345.172,-1024057.792,-1551649.816,64.438,0.690
52,137.23155767555886,317.42310496886199,345.617,-1024059.277,-1551649.193,63.352,0.690
53,139.58525583671914,323.23886064974914,345.555,-1024060.001,-1551646.953,62.695,0.690
54,140.89520810213520,281.55526686737699,345.555,-1024061.082,-1551646.213,62.695,0.690
55,143.08211006460155,256.25425776933986,345.469,-1024063.226,-1551646.641,62.695,0.690
56,146.35936856435384,265.27861546258652,345.922,-1024066.374,-1551647.556,62.695,0.690
57,149.94479796554469,297.04818068520751,346.516,-1024069.934,-1551647.134,62.563,0.690
58,152.64537901796865,321.96451577343146,346.766,-1024071.764,-1551645.148,60.961,0.690
59,155.37116804906813,344.84446812112282,347.805,-1024073.265,-1551642.873,60.094,0.690
60,157.07170190640187,37.61481496744163,347.703,-1024073.173,-1551641.175,58.945,0.690
61,158.50728888171332,76.89835180003089,346.531,-1024071.807,-1551640.734,58.945,0.690
62,161.34694115686182,71.19344514867124,345.844,-1024068.997,-1551640.322,58.945,0.690
63,163.65933091792209,53.97386435026814,345.875,-1024066.980,-1551639.192,58.477,0.690
64,164.97894830158896,23.98602536191532,345.875,-1024066.012,-1551638.295,58.477,0.690
65,166.46875218458644,338.21533899401169,346.320,-1024065.992,-1551636.806,57.898,0.690
66,167.60347370355913,319.90573704332974,346.656,-1024066.785,-1551635.994,56.820,0.690
67,169.32322224300012,336.33670574440953,346.656,-1024067.793,-1551634.600,56.820,0.690
68,171.18937879854548,357.12248884659374,347.133,-1024068.163,-1551632.771,55.617,0.690
69,173.74749817081948,353.85955023803240,347.813,-1024067.909,-1551630.226,55.055,0.690
70,176.49829167938597,328.05833022847332,348.719,-1024068.758,-1551627.609,55.281,0.690
71,178.26381019167880,317.48806729731791,348.633,-1024070.026,-1551626.381,55.281,0.690
72,181.67663814255948,307.34986526118985,350.547,-1024072.180,-1551623.733,55.102,0.690
73,183.68530230991237,277.52029088112897,350.625,-1024074.017,-1551622.922,55.102,0.690
74,185.01552903201929,233.78867835224557,350.625,-1024075.332,-1551623.125,55.102,0.690
75,186.84290982074648,172.21934350746312,350.203,-1024076.143,-1551624.762,54.992,0.690
76,188.24662006228615,124.14867757696631,349.688,-1024075.205,-1551625.807,55.383,0.690
77,190.25126722435505,118.38718399483888,348.852,-1024073.324,-1551626.499,55.281,0.690
78,192.01721019224399,154.27241910133046,348.633,-1024071.906,-1551627.551,55.281,0.690
79,193.20520147133055,226.29445352592819,348.359,-1024071.947,-1551628.739,54.977,0.690
80,195.20115234896801,265.88190400596841,348.828,-1024073.943,-1551628.718,54.977,0.690
81,198.13675935735091,251.54856939416155,349.555,-1024076.843,-1551629.169,54.891,0.690
82,200.67120015000813,249.96790451330111,350.063,-1024079.080,-1551630.361,55.016,0.690
83,201.68370469856345,283.25211569809142,350.469,-1024080.070,-1551630.572,55.016,0.690
84,203.39312818165840,310.36121669835279,350.023,-1024081.408,-1551629.507,54.633,0.690
85,206.65736903361571,313.00617774931345,350.250,-1024083.825,-1551627.314,54.594,0.690
86,209.56343569646637,307.93749897643517,351.000,-1024085.923,-1551625.303,55.328,0.690
87,212.00479127234692,321.78101859026532,351.648,-1024087.992,-1551624.006,56.430,0.917
88,215.42219313118480,343.85813461870788,352.109,-1024089.077,-1551620.766,56.414,0.917
89,218.89617167351443,341.70353483663081,351.625,-1024089.904,-1551617.391,56.375,0.917
90,221.02580122748745,327.78051210701631,351.531,-1024090.730,-1551615.429,57.180,0.917
91,223.07742744106156,336.80579586111423,352.141,-1024092.092,-1551613.895,57.164,0.917
92,225.63531284912881,350.52289660894201,352.695,-1024092.305,-1551611.346,56.742,0.917
93,228.82058499669105,318.72110745851006,353.445,-1024093.085,-1551608.257,56.148,0.917
94,230.16260284564424,269.30727153378604,354.602,-1024094.333,-1551607.763,55.352,0.917
95,232.92780550023565,236.14948744586312,353.922,-1024096.878,-1551608.844,55.758,0.917
96,234.89611313699265,231.23057117055657,353.758,-1024098.277,-1551610.228,55.039,0.917
97,237.27287670378192,220.85916639643804,354.414,-1024100.274,-1551611.517,53.938,0.917
98,239.72918160891516,183.23401377793215,354.125,-1024101.295,-1551613.751,53.938,0.917
99,241.95351403214269,147.05283224555527,354.188,-1024100.605,-1551615.865,53.938,0.917
100,244.38091833116584,153.63520964185017,353.820,-1024098.806,-1551617.496,55.039,0.917
101,245.95893548316829,215.71516846778965,354.406,-1024098.671,-1551619.068,55.039,0.917
102,248.19551910099145,241.07028350854884,354.836,-1024100.844,-1551619.596,53.938,0.917
103,249.40914145099572,218.01096726770251,355.445,-1024101.714,-1551620.442,54.242,0.917
104,251.62183281620713,216.34973024978365,357.000,-1024102.828,-1551622.354,55.250,0.917
105,255.24060290498679,228.98368594500121,358.727,-1024105.271,-1551625.023,56.742,0.917
106,258.19396272872723,246.14749784847444,360.648,-1024107.705,-1551626.696,57.648,0.917
107,261.62692163766462,258.76403860562624,361.797,-1024111.048,-1551627.480,58.320,0.917
108,264.47793310487674,272.42978245943226,361.977,-1024113.861,-1551627.939,58.656,0.917
109,266.57546604029216,335.30112587097335,362.148,-1024115.896,-1551627.428,59.156,0.917
110,268.26080128329755,39.90864564707304,361.188,-1024115.144,-1551625.919,57.414,0.917
111,270.69827922096817,57.40209672790654,360.836,-1024113.189,-1551624.464,57.297,0.917
112,273.01358930694971,58.94182982777436,359.633,-1024111.155,-1551623.358,56.609,0.917
113,274.51520946693500,4.24163418868277,359.086,-1024109.904,-1551622.527,56.344,0.917
114,275.83127509985849,289.57754357411829,359.047,-1024110.881,-1551621.645,54.859,0.917
115,278.76318224081155,269.20256233866013,359.516,-1024113.809,-1551621.794,55.078,0.917
116,283.13456799603068,273.68272671159406,361.703,-1024118.179,-1551621.694,55.617,0.917
117,286.65024930538857,285.41802512379587,362.320,-1024121.675,-1551621.323,55.656,0.917
118,288.73828605180535,305.28385610162235,363.328,-1024123.571,-1551620.448,55.656,0.917
119,290.33731830313110,346.95522000997761,364.133,-1024124.686,-1551619.302,54.563,0.917
120,293.00189354074996,28.93807126549184,362.648,-1024123.857,-1551616.770,52.969,0.917
121,296.37275752785501,31.16146547391982,361.422,-1024121.702,-1551614.178,51.469,0.917
122,299.88675633628850,0.09063539534019,360.188,-1024120.352,-1551610.933,48.969,0.917
123,302.72424705917160,326.03697614858260,359.813,-1024121.434,-1551608.310,48.164,0.917
124,306.02029179107791,315.35634952069159,360.711,-1024123.786,-1551606.001,47.484,0.917
125,309.33859465132639,314.56573309233715,361.836,-1024126.081,-1551603.604,45.383,0.917
126,313.84578805803858,324.51411641759358,362.008,-1024129.383,-1551600.536,44.523,0.917
127,317.18426887200366,351.09933500202573,361.320,-1024130.733,-1551597.483,44.430,0.917
128,320.37384530501458,10.90686974039132,361.063,-1024130.397,-1551594.311,44.430,0.917
129,322.87544222800511,15.75104065962121,360.781,-1024129.717,-1551591.904,43.852,2.294
130,325.37703915077157,13.64274961089494,361.383,-1024129.038,-1551589.496,43.633,2.294
131,328.04011161216675,11.53445856267191,362.359,-1024128.506,-1551586.887,43.633,2.294
132,330.70318407358519,358.70981447616282,363.078,-1024127.973,-1551584.278,43.539,2.294
133,333.53382234809067,345.88517038785869,365.234,-1024128.664,-1551581.532,42.539,2.294
134,336.36446062285034,343.77039387440738,365.898,-1024129.354,-1551578.787,41.977,2.294
135,340.32527134037599,347.04362761958077,366.578,-1024130.601,-1551575.028,41.125,2.294
136,343.38490456714396,338.94492487273715,366.063,-1024131.004,-1551571.995,41.609,2.294
137,345.39535772540427,297.59836923908705,366.203,-1024132.143,-1551570.339,41.820,2.294
138,347.19457617733747,259.01230684910809,366.203,-1024133.943,-1551570.347,41.820,2.294
139,350.19722812651310,248.70589945223117,367.094,-1024136.732,-1551571.458,42.461,2.294
140,352.42997807768603,256.69217541945761,368.305,-1024138.818,-1551572.253,41.977,2.294
141,355.65589284130499,275.44653158486364,369.258,-1024142.028,-1551572.576,41.992,2.294
142,359.69594113318840,298.67918545753787,368.922,-1024145.899,-1551571.420,41.242,2.294
143,360.84245323040722,345.84357995929440,369.484,-1024146.768,-1551570.672,40.063,2.294
144,362.76211888406590,43.09706318989063,368.977,-1024146.081,-1551568.879,40.172,2.294
145,364.55743838993698,60.55924083762222,368.383,-1024144.451,-1551568.127,41.352,2.294
146,366.09698011700289,41.54647457412588,367.266,-1024143.176,-1551567.263,42.078,2.294
147,369.24122479475386,18.33851765057466,366.797,-1024141.739,-1551564.467,42.188,2.294
148,371.20524490521461,359.43135089515198,366.680,-1024141.416,-1551562.530,41.984,2.294
149,373.80871704977017,341.74126678894027,367.617,-1024141.895,-1551559.971,41.047,2.294
150,376.68723152453686,328.99662006173071,368.078,-1024143.153,-1551557.382,40.859,2.294
151,379.46523418394406,312.23153524943859,368.664,-1024144.790,-1551555.137,40.313,2.294
152,381.04893096435370,286.61403428804147,369.563,-1024146.153,-1551554.332,39.844,2.294
153,382.61158787629034,264.68198125504415,369.563,-1024147.714,-1551554.259,39.844,2.294
154,384.40750729548495,234.07469684232009,370.164,-1024149.462,-1551554.672,39.484,2.294
155,385.83246645586809,208.90473798148221,371.109,-1024150.205,-1551555.888,39.117,2.294
156,387.94992761598462,212.56247824768809,370.922,-1024151.146,-1551557.785,39.117,2.294
157,389.42667702570282,220.78410760898257,370.734,-1024152.070,-1551558.936,39.031,2.294
158,391.49818848797867,238.36464665516937,370.852,-1024153.478,-1551560.456,39.031,2.294
159,393.89602175043098,272.84127139019614,371.203,-1024155.782,-1551561.120,38.953,2.294
160,396.05130764970545,309.13868202607978,371.422,-1024157.784,-1551560.321,39.086,2.294
161,398.08342332060710,325.62960165551999,371.000,-1024158.905,-1551558.626,38.930,2.294
162,400.28475584896813,299.64310835102168,371.063,-1024160.175,-1551556.829,38.406,2.294
163,401.61080793136995,265.96764956446538,371.063,-1024161.497,-1551556.724,38.406,2.294
164,403.60900080620831,238.59302846527112,371.180,-1024163.447,-1551557.160,38.523,2.294
165,406.29726146599802,208.32879703701195,371.055,-1024165.168,-1551559.226,38.672,2.294
166,407.67479458784027,212.92175241050245,371.141,-1024165.568,-1551560.544,38.672,2.294
167,409.12133603654416,235.85059334424224,371.219,-1024166.659,-1551561.493,38.875,2.294
168,411.48646525979774,253.11045239925687,371.781,-1024168.761,-1551562.577,38.508,2.294
169,413.93233636098290,290.11228600280390,372.133,-1024171.191,-1551562.854,37.820,2.294
170,416.49289948000290,319.24242426772952,372.031,-1024172.947,-1551560.990,37.344,2.294
171,418.36289382535870,331.72679742704508,372.328,-1024174.104,-1551559.521,36.789,2.294
172,421.29217587514086,339.97549016839906,371.977,-1024175.024,-1551556.740,36.789,2.294
173,423.79436672213950,339.55773407468422,371.914,-1024175.951,-1551554.416,36.789,2.294
174,426.07905357481962,338.74691434122934,372.188,-1024176.700,-1551552.258,36.148,2.294
175,427.58939102681785,330.73543884197863,371.523,-1024177.299,-1551550.871,36.148,2.294
176,428.91288653300370,338.49609740052517,370.961,-1024178.062,-1551549.789,35.313,2.294
177,431.50671327321601,352.78542008826480,370.617,-1024178.415,-1551547.220,35.313,2.294
178,434.57953737243929,3.13520820921098,370.953,-1024178.768,-1551544.167,35.313,2.294
179,437.80143142258589,14.08154669734281,372.797,-1024178.051,-1551541.026,35.313,2.294
180,440.49461178088222,356.33678555934182,373.617,-1024177.340,-1551538.428,36.148,2.294
181,442.56204225071775,310.13753126355317,374.750,-1024178.136,-1551536.520,35.086,2.294
182,444.04325171812502,274.95979814733681,374.750,-1024179.579,-1551536.189,35.086,2.294
183,446.18831242202111,280.37447375700231,374.672,-1024181.721,-1551536.301,34.242,2.294
184,447.88014093225928,306.51359986215499,375.242,-1024183.270,-1551535.620,33.297,2.294
185,449.49561946615341,332.06296727487876,375.266,-1024184.324,-1551534.395,32.766,2.294
186,451.02348161997855,346.17210501219910,375.625,-1024184.724,-1551532.921,32.250,2.294
187,452.58933304077209,354.93364062344716,376.422,-1024185.062,-1551531.392,31.797,2.294
188,453.86891726809591,355.82725583551780,376.422,-1024185.010,-1551530.113,31.797,2.294
189,454.80725315453424,320.47028577408594,377.297,-1024185.184,-1551529.191,31.797,2.294
190,456.46296247662787,293.35357420499031,377.063,-1024186.723,-1551528.581,31.914,2.294
191,458.88435681964137,293.97656999779002,377.117,-1024188.916,-1551527.555,31.914,2.294
192,462.82819273596402,296.61165323612380,376.281,-1024192.550,-1551526.021,32.219,2.294
193,466.08277698444431,301.11192854213499,376.516,-1024195.358,-1551524.377,32.492,2.294
194,469.52402505273523,305.39667081599612,376.828,-1024198.280,-1551522.560,33.203,2.294
195,473.68618563060306,310.01963505289984,377.797,-1024201.519,-1551519.945,33.336,2.294
196,476.43554965587055,311.13039377873258,377.227,-1024203.590,-1551518.137,33.266,2.294
197,479.18491368089718,306.21078871969632,377.008,-1024205.661,-1551516.328,32.391,2.294
198,482.44139840262210,298.67017829468836,377.227,-1024208.444,-1551514.637,29.492,1.671
199,486.99405236634607,291.30840018969025,377.852,-1024212.534,-1551512.638,28.203,1.671
200,491.09559390422993,278.91152500572827,378.828,-1024216.465,-1551511.468,28.555,1.671
201,494.09222672458350,267.06247078489196,378.766,-1024219.461,-1551511.403,28.047,1.671
202,496.91169779885934,276.60636773834437,378.875,-1024222.259,-1551511.753,25.797,1.671
203,498.44520534208579,276.13006961340318,378.875,-1024223.697,-1551511.219,25.797,1.671
204,499.09270224851838,251.90809414360720,379.031,-1024224.338,-1551511.310,25.039,1.671
205,500.01789469283233,251.07894547499708,379.031,-1024225.154,-1551511.746,25.039,1.671
206,503.22017996842897,252.79507358648496,378.719,-1024228.310,-1551512.288,25.281,1.671
207,505.52932860906213,248.70111497529024,379.336,-1024230.408,-1551513.252,25.438,1.671
208,507.46314740296214,269.59850971642197,379.945,-1024232.248,-1551513.847,25.570,1.671
209,508.29937742253617,317.08055884774268,379.945,-1024233.047,-1551513.601,25.570,1.671
210,509.19536457406866,356.48239363796705,379.945,-1024233.248,-1551512.728,25.570,1.671
211,511.37382590536066,356.21269250913008,380.664,-1024233.023,-1551510.561,25.570,1.671
212,512.79751246716876,322.50405706081835,381.469,-1024233.356,-1551509.177,25.570,1.671
213,514.08320811427086,282.90837596630945,381.789,-1024234.486,-1551508.563,25.570,1.671
214,515.83027631204379,266.13782031192653,382.242,-1024236.231,-1551508.645,25.570,1.671
215,517.19148567397315,284.95240622409898,382.242,-1024237.587,-1551508.764,25.570,1.671
216,520.30848085575576,300.87907197368457,383.391,-1024240.142,-1551506.980,25.789,1.671
217,522.84417902967141,297.39548015367370,383.828,-1024242.405,-1551505.835,25.789,1.671
218,526.51366204229475,297.00011504067680,383.891,-1024245.646,-1551504.114,25.789,1.671
219,529.92308252899045,319.15471115180236,383.609,-1024248.709,-1551502.618,25.875,1.671
220,531.23129304509098,326.21360333273986,383.734,-1024249.108,-1551501.372,25.945,1.671
221,533.72177156325893,319.89747406587298,383.570,-1024251.011,-1551499.766,26.133,1.671
222,536.07169369388930,343.00167358352559,383.789,-1024252.199,-1551497.738,26.156,1.671
223,538.60648125553701,341.92181905309008,383.922,-1024252.360,-1551495.209,26.281,1.671
224,541.17093517390072,327.48325482954425,384.047,-1024253.738,-1551493.046,26.531,1.671
225,543.73538909220190,321.53189530007086,383.992,-1024255.117,-1551490.884,26.070,1.671
