vertex_index,distance,angle,elev,x,y,Velocity,relief
0,0.00000000000000,299.76467525933919,4592.086,-1483908.502,784529.732,154.042,22.477
1,4.38477076014989,303.65681002005664,4592.086,-1483912.309,784531.909,154.042,22.477
2,7.02622072061179,307.54894478077409,4592.086,-1483914.403,784533.519,154.042,22.477
3,9.66767068107370,323.22009337792207,4592.404,-1483916.497,784535.128,154.042,23.602
4,12.60593016710467,338.89124197295229,4592.404,-1483917.555,784537.869,154.042,23.602
5,15.54418965321950,352.28291620310921,4592.404,-1483918.614,784540.611,154.042,23.602
6,19.24231597263359,5.67459043358903,4592.517,-1483918.248,784544.291,154.042,22.862
7,22.94044229202467,6.01919559409120,4592.517,-1483917.882,784547.971,154.042,22.862
8,26.06553693575844,6.36380075626990,4592.941,-1483917.536,784551.076,154.042,21.783
9,29.19063157960792,351.29826639957707,4592.941,-1483917.189,784554.182,154.042,21.783
10,33.85955335296609,329.13171385293742,4592.941,-1483919.071,784558.455,154.042,21.783
11,36.77938591686950,322.03069566177413,4593.182,-1483920.868,784560.757,154.042,21.004
12,39.69921848100792,318.88493453513746,4593.182,-1483922.664,784563.059,154.042,21.004
13,44.05638516371129,315.73917341013316,4592.289,-1483925.705,784566.179,154.042,23.212
14,48.41355184649802,315.96960730838941,4591.859,-1483928.746,784569.300,154.042,22.216
15,51.43161339776260,316.20004120451631,4591.859,-1483930.835,784571.478,154.042,22.216
16,54.44967494918834,321.90707624002073,4592.786,-1483932.924,784573.656,154.042,24.145
17,57.03298810833064,327.61411127493989,4592.741,-1483934.307,784575.838,154.042,23.602
18,59.61630126759764,329.18344013708349,4592.741,-1483935.691,784578.019,154.042,23.602
19,62.48461712810220,330.75276900197542,4592.741,-1483937.092,784580.522,154.042,23.602
20,65.35293298870832,329.27924225582751,4592.741,-1483938.494,784583.025,154.042,23.602
21,68.09200662835453,332.94879988861783,4593.159,-1483939.953,784585.343,154.042,22.837
22,71.24199776919380,338.09188426615964,4593.898,-1483941.129,784588.265,154.042,24.454
23,74.39198891011996,337.34976717869449,4593.898,-1483942.304,784591.188,154.042,24.454
24,77.17364135282322,336.60765009539472,4593.742,-1483943.408,784593.741,154.042,23.948
25,79.95529379543402,339.34713127598548,4593.742,-1483944.513,784596.294,154.042,23.948
26,83.37136822188748,342.08661245653360,4593.742,-1483945.563,784599.544,154.042,23.948
27,86.78744264838008,340.76938632177416,4593.856,-1483946.614,784602.795,154.042,23.140
28,91.48932985399352,335.84546778674161,4593.856,-1483948.264,784607.197,154.042,23.140
29,95.04930080642175,332.23877538862689,4594.697,-1483949.923,784610.348,154.042,23.959
30,98.60927175885001,322.24727669441364,4594.697,-1483951.581,784613.498,154.042,23.959
31,103.22164691389600,316.85198339271966,4594.697,-1483954.995,784616.599,154.042,23.959
32,107.50874648307604,324.76579936723664,4595.092,-1483957.666,784619.952,154.042,24.848
33,111.37320679686653,329.90552402080010,4595.092,-1483959.710,784623.232,154.042,24.848
34,114.67934529223388,331.72763809414261,4595.044,-1483961.276,784626.144,154.042,24.361
35,117.98548378749096,330.70224853677149,4595.044,-1483962.842,784629.056,154.042,24.361
36,121.03098652390698,329.67685897951407,4595.044,-1483964.379,784631.685,154.042,24.361
37,124.07648926020546,329.97902492467045,4594.917,-1483965.917,784634.314,154.042,23.808
38,127.09874257597406,335.11386199680106,4595.396,-1483967.415,784636.938,154.042,25.404
39,131.50861001162468,337.09228362247478,4595.396,-1483968.927,784641.081,154.042,25.404
40,136.42497812897784,334.45116587279267,4594.927,-1483971.064,784645.508,154.042,24.889
41,140.61636873577555,334.81650427417236,4594.927,-1483972.858,784649.297,154.042,24.889
42,145.43366222763612,338.35944088666525,4595.667,-1483974.896,784653.662,164.786,25.200
43,149.72674524399054,344.04753881612822,4595.667,-1483976.240,784657.739,164.786,25.200
44,154.00559908024044,346.72199669858145,4595.197,-1483977.250,784661.897,164.786,24.997
45,156.59312262700888,347.09908661870674,4595.197,-1483977.828,784664.419,164.786,24.997
46,159.18064617372534,334.39316900266124,4594.692,-1483978.406,784666.941,164.786,24.618
47,161.59665553828822,332.46640361520696,4594.692,-1483979.904,784668.837,164.786,24.618
48,162.97467917447236,358.00265325709688,4594.692,-1483980.301,784670.156,164.786,24.618
49,165.97976544994319,12.75975066763761,4594.692,-1483979.637,784673.087,164.786,24.618
50,168.98485172552753,12.86068240583186,4594.128,-1483978.973,784676.018,164.786,23.918
51,172.22428746281852,12.96161414604688,4594.128,-1483978.247,784679.175,164.786,23.918
52,175.46372320027518,12.60877935910019,4594.128,-1483977.520,784682.332,164.786,23.918
53,179.47676122259429,8.84133041405513,4593.357,-1483976.668,784686.253,164.786,22.979
54,182.15557060611852,5.42671625773235,4593.357,-1483976.415,784688.920,164.786,22.979
55,184.83437998964277,348.25770571410652,4592.753,-1483976.162,784691.587,164.786,21.866
56,188.92671123193489,331.08869517048066,4592.753,-1483978.140,784695.169,164.786,21.866
57,193.01904247422704,331.02472592211575,4592.753,-1483980.119,784698.752,164.786,21.866
58,196.15552079601463,330.96075667561013,4593.214,-1483981.641,784701.494,164.786,20.876
59,199.29199911768919,320.10094944406904,4592.915,-1483983.163,784704.236,164.786,23.071
60,203.01559596832661,306.75583907881145,4592.915,-1483986.047,784706.591,164.786,23.071
61,205.56961685018447,304.27053594803317,4592.979,-1483988.158,784708.030,164.786,22.118
62,208.12363773210788,304.90850058810730,4592.979,-1483990.269,784709.468,164.786,22.118
63,212.33040277518813,308.10744783200994,4593.803,-1483993.691,784711.913,164.786,24.016
64,216.23863636222188,313.13248412496085,4593.803,-1483996.656,784714.460,164.786,24.016
65,219.07171185092145,315.59653781132226,4593.515,-1483998.638,784716.484,164.786,23.297
66,221.90478733978392,319.96324331267482,4594.912,-1484000.620,784718.508,142.723,24.572
67,223.80474435679295,328.50667022696069,4594.912,-1484001.728,784720.052,142.723,24.572
68,227.03200636026671,332.68339163637563,4594.912,-1484003.209,784722.919,142.723,24.572
69,230.25926836384727,335.63864550331323,4594.438,-1484004.690,784725.787,142.723,24.123
70,233.31871956045677,338.59389937208721,4594.438,-1484005.807,784728.635,142.723,24.123
71,236.37817075706619,350.66528869840653,4594.438,-1484006.924,784731.483,142.723,24.123
72,241.27617427180792,357.80543801152572,4593.998,-1484006.690,784736.376,142.723,23.583
73,243.90726878723012,352.87419799580988,4593.998,-1484007.016,784738.987,142.723,23.583
74,246.53836330268123,344.80709103690498,4594.668,-1484007.343,784741.597,142.723,24.298
75,249.79820992911169,336.73998408091950,4594.668,-1484008.630,784744.592,142.723,24.298
76,253.05805655564905,343.83047593944679,4594.668,-1484009.917,784747.587,142.723,24.298
77,256.04997049496149,350.92096779757003,4593.735,-1484010.389,784750.542,142.723,23.671
78,259.04188443427392,344.24753169135170,4593.735,-1484010.861,784753.496,142.723,23.671
79,261.60113849758255,337.57409558463610,4593.735,-1484011.838,784755.862,142.723,23.671
80,264.16039256078358,340.98168464954944,4593.049,-1484012.814,784758.227,142.723,22.827
81,267.98925528628877,344.38927371519435,4593.049,-1484013.844,784761.915,142.723,22.827
82,271.81811801190611,341.72132099758238,4593.049,-1484014.875,784765.603,142.723,22.827
83,274.37189409626012,339.05336828217531,4593.834,-1484015.788,784767.988,142.723,23.708
84,276.92567018053086,327.61815662225365,4593.834,-1484016.701,784770.373,142.723,23.708
85,279.99067271052400,309.47315972143321,4593.834,-1484018.823,784772.584,142.723,23.708
86,284.03568472271110,298.82850567374697,4593.092,-1484022.224,784774.773,142.723,23.293
87,286.64432242389671,274.44922652977488,4594.603,-1484024.591,784775.871,142.723,25.129
88,289.65421480681698,266.54393704009499,4594.603,-1484027.484,784775.042,142.723,25.129
89,291.53355648517885,298.80567038789735,4594.603,-1484029.340,784775.339,142.723,25.129
90,295.32722487217262,319.26932304910935,4594.603,-1484031.852,784778.181,142.723,25.129
91,298.89528513188839,321.61440344582684,4596.727,-1484034.145,784780.915,142.723,27.012
92,301.57947060487868,323.21844368605940,4595.894,-1484035.752,784783.065,142.723,27.012
93,304.26365607772959,323.99906751874266,4595.894,-1484037.359,784785.215,142.723,27.012
94,307.35638208029303,324.77969134881374,4595.894,-1484039.143,784787.741,142.723,27.012
95,310.44910808276137,326.38794285915560,4598.018,-1484040.927,784790.268,142.723,28.684
96,314.52498374523844,331.61474338751691,4597.346,-1484043.087,784793.724,142.723,28.684
97,317.04765087714117,342.68215505871177,4597.346,-1484044.144,784796.015,142.723,28.684
98,320.62484998860486,350.13101771250916,4597.124,-1484044.757,784799.539,145.792,28.684
99,324.20204910006856,356.46727870157650,4597.124,-1484045.370,784803.063,145.792,28.684
100,327.64337396597750,2.80353969059651,4597.124,-1484045.202,784806.501,145.792,28.684
101,331.08469883200269,6.51058343509019,4597.143,-1484045.033,784809.938,145.792,28.684
102,335.90529613253545,10.21762717963128,4597.143,-1484044.178,784814.682,145.792,28.684
103,340.72589343306822,6.57786384586255,4596.963,-1484043.323,784819.426,145.792,28.684
104,343.75836931480995,2.93810051203747,4596.963,-1484043.168,784822.455,145.792,28.684
105,346.79084519666793,3.23589178589575,4596.316,-1484043.012,784825.483,145.792,28.593
106,349.31505550504227,3.53368305717297,4596.316,-1484042.857,784828.002,145.792,28.593
107,351.83926581340222,358.62612551743456,4596.316,-1484042.701,784830.522,145.792,28.593
108,355.12557144856453,353.71856797842713,4595.495,-1484043.061,784833.788,145.792,28.051
109,358.41187708386803,344.92850547392737,4595.495,-1484043.420,784837.055,145.792,28.051
110,361.43004199843426,336.13844297290814,4595.495,-1484044.641,784839.815,145.792,28.051
111,364.44820691279966,333.32681706040273,4594.793,-1484045.862,784842.575,145.792,27.383
112,368.55014655371826,330.51519114773868,4594.793,-1484047.881,784846.146,145.792,27.383
113,372.65208619452210,315.95911359027406,4595.690,-1484049.900,784849.717,145.792,28.171
114,376.28740512870178,305.85159659244351,4595.690,-1484053.003,784851.611,145.792,28.171
115,379.07653797899354,310.30015715103440,4595.690,-1484055.130,784853.415,145.792,28.171
116,381.86567082938762,317.33456441315809,4597.736,-1484057.257,784855.219,145.792,28.949
117,385.23440898781456,324.36897167877316,4596.841,-1484059.220,784857.957,145.792,28.153
118,388.60314714601128,326.96382089915363,4596.841,-1484061.182,784860.695,145.792,28.153
119,393.54100495803016,325.45766542287953,4596.841,-1484063.684,784864.952,145.792,28.153
120,396.20467873321695,321.35666072725758,4597.987,-1484065.347,784867.033,145.792,29.115
121,398.86835250840375,322.79249846627266,4597.987,-1484067.011,784869.113,145.792,29.115
122,401.55429815896957,332.44136629448639,4597.987,-1484068.581,784871.292,145.792,29.115
123,405.28703410907485,340.65439638368508,4597.322,-1484069.817,784874.814,145.792,28.488
124,409.01977005918008,338.30811118958820,4597.322,-1484071.054,784878.336,145.792,28.488
125,412.36478689146719,335.96182599549127,4597.322,-1484072.416,784881.391,145.792,28.488
126,415.70980372375431,339.66513370146833,4598.479,-1484073.779,784884.446,145.792,29.106
127,418.74996622575992,343.36844140534316,4598.479,-1484074.649,784887.359,145.792,29.106
128,421.79012872783215,337.46078215493031,4597.674,-1484075.519,784890.272,145.792,29.106
129,425.60845630801106,331.55312290508357,4597.674,-1484077.338,784893.629,145.792,29.106
130,429.42678388830086,334.15126003205000,4597.674,-1484079.157,784896.987,145.792,29.106
131,432.27578212464317,336.74939716316572,4596.966,-1484080.282,784899.604,145.792,29.026
132,435.12478036100055,336.53230543469209,4596.966,-1484081.406,784902.222,145.792,29.026
133,438.50511076690947,336.31521370580867,4598.775,-1484082.764,784905.318,145.792,29.370
134,441.88544117283135,336.31521370580867,4597.949,-1484084.122,784908.413,145.792,29.370
135,445.26577157874021,339.17872814556404,4597.949,-1484085.480,784911.509,145.792,29.370
136,449.39687291525752,342.04224258930770,4597.087,-1484086.754,784915.439,145.792,29.073
137,453.52797425181376,343.38189314125424,4597.087,-1484088.027,784919.368,145.792,29.073
138,457.81574466656838,344.72154368991528,4596.376,-1484089.157,784923.505,145.792,28.852
139,462.10351508138433,343.75596484748587,4598.124,-1484090.287,784927.641,145.792,29.706
140,464.63078631249442,342.79038600655713,4598.124,-1484091.035,784930.055,145.792,29.706
141,467.15805754360440,340.87205405754247,4597.374,-1484091.782,784932.469,160.877,29.530
142,471.15645602514815,341.82475141463658,4597.374,-1484093.218,784936.201,160.877,29.530
143,474.71552187715366,348.85642677432929,4597.374,-1484094.158,784939.634,160.877,29.530
144,479.56541362904613,353.00466649506637,4596.792,-1484094.747,784944.448,160.877,29.208
145,482.40768559253570,352.99226016221968,4596.792,-1484095.094,784947.269,160.877,29.208
146,485.24995755602509,345.69403493462431,4596.546,-1484095.441,784950.090,160.877,28.696
147,488.35831373521825,338.39580970902404,4596.546,-1484096.585,784952.980,160.877,28.696
148,491.46666991432568,325.98536661475976,4596.546,-1484097.730,784955.870,160.877,28.696
149,495.05313902850554,309.65224209655986,4597.730,-1484100.328,784958.342,160.877,29.404
150,498.79693135122159,319.17352425417573,4597.730,-1484103.367,784960.528,160.877,29.404
151,501.64060686713822,332.61748783581487,4597.730,-1484104.675,784963.053,160.877,29.404
152,504.48428238294787,332.16170095556311,4597.389,-1484105.983,784965.578,160.877,28.828
153,508.59529495859118,333.43383388534568,4599.122,-1484107.932,784969.198,160.877,29.767
154,511.19839270841459,335.16175369978805,4599.122,-1484109.025,784971.560,160.877,29.767
155,513.80149045814017,322.73920475890037,4598.614,-1484110.119,784973.923,160.877,29.767
156,516.32793540547448,310.31665581498561,4598.614,-1484112.045,784975.557,160.877,29.767
157,518.85438035306174,311.29943503729254,4598.614,-1484113.971,784977.192,160.877,29.767
158,522.55839985289504,310.40411154019324,4600.606,-1484116.712,784979.684,160.877,30.575
159,525.34475088468423,319.42166470246366,4599.789,-1484118.892,784981.419,160.877,30.351
160,530.20895213478127,333.37232051605395,4599.789,-1484121.300,784985.645,160.877,30.351
161,534.03026763481307,343.22855659581649,4599.789,-1484122.828,784989.148,160.877,30.351
162,537.57342114884557,354.38228497149851,4600.709,-1484123.442,784992.637,160.877,30.435
163,541.37683320974395,358.73477720038329,4600.709,-1484123.526,784996.440,160.877,30.435
164,545.18024527063722,5.00496763450515,4599.851,-1484123.610,785000.242,160.877,30.382
165,549.06856022906584,11.27515806687376,4597.957,-1484122.850,785004.056,160.877,30.067
166,552.95687518749446,12.18679512415629,4597.347,-1484122.089,785007.869,160.877,29.476
167,555.76377472412753,13.09843217939360,4597.347,-1484121.453,785010.603,160.877,29.476
168,558.57067426059450,9.95841588845044,4597.347,-1484120.817,785013.337,160.877,29.476
169,561.48378166816190,6.81839959741496,4597.077,-1484120.471,785016.229,160.877,28.971
170,564.39688907558616,3.79783591038151,4597.077,-1484120.125,785019.122,160.877,28.971
171,568.74110008481478,0.77727222702092,4597.291,-1484120.067,785023.466,160.877,28.343
172,573.08531109404657,338.98295409699597,4597.291,-1484120.008,785027.809,160.877,28.343
173,576.72797271746742,303.78878579111205,4597.291,-1484122.483,785030.482,160.877,28.343
174,578.36372739463286,288.41021830313383,4597.461,-1484124.016,785031.051,160.877,28.950
175,580.20053938308877,300.22670989189982,4597.461,-1484125.778,785031.571,160.877,28.950
176,583.21709726246286,314.02191879432019,4597.461,-1484127.947,785033.667,160.877,28.950
177,586.23365514183695,326.06777846519844,4597.461,-1484130.116,785035.764,160.877,28.950
178,590.01969582720221,338.11363813640520,4597.935,-1484131.528,785039.277,160.877,28.036
179,593.80573651267548,343.42109231707224,4597.557,-1484132.939,785042.790,156.110,29.056
180,598.10797039210979,347.05173458828727,4597.557,-1484133.780,785047.009,156.110,29.056
181,602.50473097471195,335.91315016124798,4597.652,-1484134.890,785051.264,156.110,28.603
182,606.09997966456524,322.93933987477016,4597.652,-1484136.877,785054.260,156.110,28.603
183,609.76810769581675,316.92499730873112,4598.355,-1484139.263,785057.046,156.110,27.714
184,612.00177563409306,342.45479144518077,4598.356,-1484140.858,785058.610,156.110,28.714
185,616.18949331800627,5.46508668828150,4598.356,-1484140.096,785062.727,156.110,28.714
186,619.07382951946693,0.44328299744681,4598.110,-1484140.074,785065.612,156.110,28.318
187,621.95816572104388,354.37930598341893,4598.110,-1484140.051,785068.496,156.110,28.318
188,624.76664274996824,348.31532896964063,4598.110,-1484140.620,785071.246,156.110,28.318
189,627.57511977900663,344.57154501640622,4598.200,-1484141.189,785073.996,153.315,27.491
190,630.95549209226056,340.82776106139158,4598.200,-1484142.299,785077.189,153.315,27.491
191,634.33586440570093,337.09313385726563,4598.200,-1484143.409,785080.382,153.315,27.491
192,637.60426348878786,333.35850665650366,4598.926,-1484144.875,785083.304,153.315,26.198
193,640.87266257177043,324.81741283317291,4598.926,-1484146.340,785086.225,153.315,26.198
194,643.73243623054441,316.27631900882415,4598.540,-1484148.317,785088.292,153.315,28.283
195,646.59220988940251,300.07367719939214,4598.565,-1484150.293,785090.358,153.315,27.495
196,649.72703376533002,287.48737132168526,4598.565,-1484153.337,785091.110,153.315,27.495
197,653.22379860901970,304.22865924397945,4599.087,-1484156.599,785092.369,153.315,28.877
198,655.89754983338446,338.90520246381908,4599.087,-1484158.410,785094.336,153.315,28.877
199,658.59528531150477,314.53501512801057,4599.087,-1484158.389,785097.033,153.315,28.877
200,660.95046853765132,277.29116065324445,4599.087,-1484160.743,785096.976,153.315,28.877
201,662.83738332021289,302.08913425713473,4598.610,-1484162.558,785097.495,153.315,28.472
202,665.37771275625744,332.66697065884597,4598.610,-1484164.250,785099.389,153.315,28.472
203,668.88123242540792,347.96017479601824,4600.141,-1484165.031,785102.805,153.315,29.641
204,672.04231985507693,2.47929284181181,4599.419,-1484165.645,785105.906,153.315,29.545
205,676.19488352626172,11.82339170670224,4599.437,-1484164.489,785109.894,153.315,27.918
206,680.66141635486395,2.37744964571183,4600.906,-1484163.908,785114.323,153.315,27.298
207,683.75297059306649,357.27110951959872,4600.906,-1484164.055,785117.411,153.315,27.298
208,686.84452483137431,354.48521681285234,4600.906,-1484164.202,785120.499,153.315,27.298
209,691.77590753513573,343.94193070628984,4599.726,-1484164.914,785125.378,153.315,28.928
210,694.77116167344900,341.48421711126048,4599.726,-1484166.123,785128.119,153.315,28.928
211,698.07388676268340,344.23828994313891,4600.250,-1484166.879,785131.334,153.315,28.681
212,702.60666879868700,337.68494622298095,4600.250,-1484168.302,785135.637,153.315,28.681
213,707.29018605856527,330.00909640539646,4600.968,-1484170.379,785139.835,153.315,28.159
214,710.04843763933013,335.46970071687292,4600.968,-1484171.908,785142.131,153.315,28.159
215,715.01688936482424,348.23791903273423,4600.539,-1484173.227,785146.921,153.315,29.941
216,717.76418163526478,351.87741996899075,4600.539,-1484173.616,785149.641,153.315,29.941
217,720.51147390570532,352.30802736089299,4600.539,-1484174.004,785152.360,153.315,29.941
218,723.61318844625157,352.73863475492851,4600.421,-1484174.396,785155.437,153.315,29.558
219,726.71490298676827,351.16293119063522,4600.421,-1484174.788,785158.514,153.315,29.558
220,729.23389768225468,349.58722762444785,4600.421,-1484175.243,785160.992,153.315,29.558
221,731.75289237785557,336.30587744694981,4600.421,-1484175.698,785163.469,153.315,29.558
222,735.80005712638410,306.41524907402675,4600.133,-1484178.133,785166.702,153.315,29.066
