vertex_index,distance,angle,elev,x,y,relief,velocity
0,0.00000000000000,198.75946405782983,54.836,998940.623,-606289.985,21.563,14.552
1,3.99696978320742,198.75946405677149,55.188,998939.338,-606293.770,21.703,14.552
2,7.99393956648764,198.75946405650313,55.305,998938.052,-606297.554,21.695,14.552
3,11.99090934980529,198.75946405756153,55.813,998936.767,-606301.339,21.703,14.552
4,15.98787913301271,169.54468815975488,56.742,998935.481,-606305.124,21.336,14.552
5,20.05923239000729,140.32991226167991,56.031,998938.080,-606308.258,20.984,14.552
6,24.13058564700187,140.32991226104940,55.883,998940.679,-606311.391,20.773,14.552
7,28.20193890407076,140.32991226104937,56.164,998943.278,-606314.525,20.273,14.552
8,32.27329216106534,150.62004568192577,56.266,998945.877,-606317.659,20.016,14.552
9,36.76349997310095,160.91017910287351,56.523,998947.346,-606321.902,20.109,14.552
10,41.25370778509849,160.91017910287351,57.086,998948.814,-606326.146,20.883,14.552
11,45.74391559713410,138.46261230185416,57.555,998950.283,-606330.389,21.266,14.552
12,49.66162973185612,116.01504550267516,58.023,998953.804,-606332.107,21.398,14.552
13,53.57934386652456,116.01504550267516,59.000,998957.324,-606333.826,21.398,14.552
14,57.49705800124658,135.24948935984702,60.289,998960.845,-606335.544,21.492,14.552
15,62.38229689393286,154.48393321815726,61.047,998962.950,-606339.953,21.633,14.552
16,67.26753578661913,199.09526083429327,61.805,998965.054,-606344.361,21.664,14.552
17,71.74827214392867,243.70658845075900,61.375,998961.037,-606346.346,21.594,14.552
18,76.22900850134258,196.73707472158543,61.781,998957.020,-606348.331,21.547,14.552
19,80.48416124035872,149.76756099168759,62.000,998959.162,-606352.008,21.422,14.552
20,84.73931397927429,137.17154542667413,62.055,998961.305,-606355.684,21.383,23.247
21,89.48569648904137,124.57552986303260,62.703,998965.213,-606358.377,21.352,23.247
22,94.23207899877868,168.04202659492398,64.125,998969.121,-606361.071,21.336,23.247
23,97.63620636957610,211.50852332449080,63.328,998967.342,-606363.973,21.305,23.247
24,101.04033374041192,211.50852332449080,63.102,998965.563,-606366.875,25.797,23.247
25,104.44446111120934,198.27532133620969,63.336,998963.784,-606369.778,28.586,23.247
26,108.22405474816152,185.04211934658133,63.906,998963.451,-606373.543,31.016,23.247
27,112.00364838511371,151.93939351436561,64.523,998963.119,-606377.308,32.555,23.247
28,116.24945457712352,118.83666768321677,64.922,998966.839,-606379.355,31.922,23.247
29,120.49526076908749,118.83666768321677,65.578,998970.558,-606381.403,31.023,23.247
30,124.74106696109730,131.72302128523958,66.500,998974.277,-606383.451,30.289,23.247
31,128.83034838018048,144.60937488785700,66.750,998976.646,-606386.785,31.234,23.247
32,132.91962979916877,124.54444180252582,66.828,998979.014,-606390.118,31.984,23.247
33,136.63791220046707,104.47950871853541,67.445,998982.614,-606391.048,30.820,23.247
34,140.35619460179447,119.08531664313504,68.602,998986.214,-606391.978,29.227,23.247
35,144.66668435092251,170.28469127443006,68.789,998989.331,-606394.955,29.688,23.247
36,148.12808334609380,206.87825798242943,67.859,998987.766,-606398.043,31.820,23.247
37,151.58948234116127,165.46240184290627,67.758,998986.201,-606401.130,32.320,23.247
38,154.64334786707795,124.04654570204256,68.148,998988.732,-606402.840,32.250,23.247
39,157.69721339292946,132.52461460851964,68.344,998991.262,-606404.550,31.820,23.247
40,162.32724720193841,141.00268351534172,68.336,998994.176,-606408.148,30.922,24.693
41,166.95728101102063,134.13482722588387,68.375,998997.089,-606411.746,30.289,24.693
42,170.72611393028288,127.26697093769005,68.586,999000.088,-606414.029,28.844,24.693
43,174.49494684961564,158.02975561451885,68.891,999003.088,-606416.311,28.250,24.693
44,178.59167005819884,188.79254028983891,68.172,999002.462,-606420.359,28.797,24.693
45,182.68839326676425,188.79254028983891,68.109,999001.835,-606424.408,29.609,24.693
46,186.78511647534745,188.79254029064347,68.844,999001.209,-606428.457,29.484,24.693
47,190.88183968393065,187.87284011404972,69.844,999000.583,-606432.505,29.281,24.693
48,193.70875644449919,186.95313993759885,70.164,999000.241,-606435.311,29.148,24.693
49,196.53567320495225,159.79569834880459,70.609,998999.899,-606438.117,29.219,24.693
50,199.04226871161461,132.63825675888876,70.633,999001.742,-606439.815,28.828,24.693
51,201.54886421819805,94.27471787632393,70.766,999003.586,-606441.513,28.234,24.693
52,204.65505972649331,55.91117899384870,71.047,999006.159,-606439.772,27.641,24.693
53,207.76125523485385,72.42891056640994,71.414,999008.731,-606438.031,27.234,24.693
54,212.15712258199852,88.94664214061892,72.500,999013.126,-606437.950,26.102,24.693
55,216.55298992914109,88.94664214061892,73.242,999017.522,-606437.870,25.203,24.693
56,220.94885727628579,42.95421207507661,73.750,999021.917,-606437.789,24.797,24.693
57,225.80135676386999,3.83422877262598,74.078,999021.660,-606432.943,24.422,24.693
58,228.63472998662124,10.70667553611567,74.500,999022.186,-606430.159,23.789,24.693
59,231.46810320939409,39.74799053900132,75.141,999022.712,-606427.375,22.891,24.693
60,234.37605245400627,96.45422977552762,75.297,999025.423,-606426.323,22.125,24.693
61,238.60715559522671,124.11915401011440,75.258,999028.926,-606428.696,21.664,24.693
62,242.83825873628547,105.25661015476538,75.211,999032.429,-606431.069,21.648,24.693
63,245.97894894918031,86.39406629962681,75.305,999035.563,-606430.872,21.648,24.693
64,249.11963916207520,103.48825659482192,75.359,999038.698,-606430.674,21.281,24.693
65,253.35173875430303,120.58244689001702,75.297,999042.341,-606432.828,20.227,24.693
66,257.58383834653085,120.58244689001702,75.328,999045.985,-606434.981,19.742,24.693
67,261.81593793875868,119.17992031417072,75.609,999049.628,-606437.134,18.797,24.693
68,265.39399826755653,117.77739373749972,76.016,999052.794,-606438.802,18.820,24.693
69,268.97205859630009,117.77739373749972,76.195,999055.960,-606440.469,18.453,24.693
70,272.55011892509793,108.37582549354840,76.656,999059.125,-606442.137,18.031,24.693
71,276.12920983156857,98.97425724877235,77.445,999062.661,-606442.695,18.266,24.693
72,279.70830073803921,116.30918413090890,78.477,999066.196,-606443.253,18.531,24.693
73,282.35147705343678,133.64411101395854,78.648,999068.109,-606445.077,18.352,24.693
74,284.99465336891467,154.66669591192655,78.977,999070.021,-606446.902,18.539,24.693
75,288.78880328724591,175.68928080810502,78.570,999070.306,-606450.685,18.539,24.693
76,292.58295320558591,160.22798361929028,78.484,999070.592,-606454.469,18.539,24.693
77,296.04044825493634,144.76668643135204,78.727,999072.586,-606457.293,18.719,24.693
78,299.49794330428676,133.57002037912514,78.773,999074.581,-606460.117,18.813,24.693
79,302.83870025703777,122.37335432605509,78.992,999077.402,-606461.906,18.586,24.693
80,306.17945720972648,123.23896874823700,79.305,999080.224,-606463.694,17.492,24.693
81,308.83543008953228,124.10458317126204,79.383,999082.423,-606465.183,16.570,24.693
82,311.49140296933808,127.88153733110067,79.461,999084.622,-606466.673,15.750,24.693
83,315.48706169798118,131.65849149211772,79.594,999087.608,-606469.329,15.484,24.693
84,319.48272042661466,131.65849149211775,80.211,999090.593,-606471.984,15.039,24.693
85,323.47837915525776,139.90549927469920,80.477,999093.578,-606474.640,14.773,30.783
86,327.75450445673363,148.15250705912160,81.008,999095.834,-606478.273,14.664,30.783
87,332.03062975814805,151.98364284068975,81.602,999098.091,-606481.905,14.523,30.783
88,334.70579245527716,155.81477862108463,81.359,999099.187,-606484.345,14.523,30.783
89,337.38095515230009,125.52047255707024,81.227,999100.283,-606486.786,14.406,30.783
90,341.10232512930742,95.22616649356659,81.234,999103.989,-606487.125,14.281,30.783
91,344.82369510631474,112.40905348717484,81.445,999107.695,-606487.464,14.055,30.783
92,348.92027994332125,135.71632140213435,81.063,999110.851,-606490.075,14.078,30.783
93,352.82118729555469,141.84070232401385,81.148,999113.262,-606493.142,14.188,27.073
94,356.72209464787966,141.84070232454209,81.172,999115.672,-606496.209,14.336,27.073
95,360.62300200020462,141.84070232401385,82.195,999118.082,-606499.276,14.578,27.073
96,364.52390935243807,153.21996458988806,82.297,999120.492,-606502.344,14.641,27.073
97,369.48762328113003,164.59922685675983,82.227,999121.810,-606507.129,14.641,27.073
98,374.45133720967885,139.89410005712710,83.141,999123.128,-606511.915,14.656,27.073
99,377.68038437815437,115.18897325746462,83.836,999126.050,-606513.289,14.609,27.073
100,380.90943154652450,96.10198639961357,84.039,999128.972,-606514.663,14.578,27.073
101,383.54911865882531,103.22278304182252,84.273,999131.545,-606514.070,14.563,27.073
102,387.19207962703081,129.43056654244776,84.609,999134.358,-606516.384,14.469,27.073
103,390.83504059540019,139.38683380708281,84.648,999137.172,-606518.698,14.367,27.073
104,394.07407174925441,149.34310107159223,84.750,999138.824,-606521.484,14.367,27.073
105,397.31310290310864,147.78915722337462,84.789,999140.475,-606524.270,14.078,27.073
106,401.65450656719338,146.23521337536872,85.016,999142.888,-606527.879,13.875,27.073
107,405.99591023111645,111.89904297387014,85.141,999145.301,-606531.489,13.688,27.073
108,410.62564224870147,109.86942468941402,85.719,999149.822,-606530.491,13.789,27.073
109,414.84133695305974,142.17597680777823,86.211,999152.407,-606533.821,13.992,27.073
110,419.05703165743864,150.45524507307985,86.055,999154.993,-606537.151,14.047,27.073
111,421.76722179662494,158.73451333727144,85.844,999155.976,-606539.677,14.047,27.073
112,424.47741193581118,179.10221513739850,85.891,999156.959,-606542.203,14.094,27.073
113,428.58919517067710,178.49159728370606,85.586,999155.588,-606546.079,13.750,27.073
114,432.01867071005222,132.29333602568320,85.797,999156.900,-606549.248,13.930,27.073
115,435.93322859477394,107.07339442147988,86.375,999160.642,-606550.397,13.609,27.073
116,439.84778647949560,116.93310821502325,87.047,999164.384,-606551.547,13.844,27.073
117,443.27378696462898,126.79282200778709,87.203,999167.127,-606553.599,14.047,27.073
118,446.69978744969262,117.72687891421138,87.250,999169.871,-606555.650,14.250,27.073
119,450.96261681759478,108.66093582166556,87.359,999173.910,-606557.014,14.586,27.073
120,455.22544618538677,121.08194663757776,87.375,999177.948,-606558.378,14.852,27.073
121,458.69264252233938,133.50295745393737,87.484,999180.463,-606560.765,15.039,27.073
122,462.15983885937214,147.76632797908456,87.602,999182.978,-606563.152,15.117,27.073
123,466.00644791299806,162.02969850409127,87.805,999184.165,-606566.811,15.188,27.073
124,469.85305696647725,162.02969850409127,87.625,999185.352,-606570.470,15.188,27.073
125,473.69966602010322,156.20572171994692,87.922,999186.539,-606574.129,16.328,27.073
126,477.39242834578562,150.38174493602097,88.094,999188.364,-606577.339,16.352,27.073
127,481.08519067162678,119.51931588105218,88.289,999190.189,-606580.549,17.102,27.073
128,484.40767808310551,88.65688682541867,88.305,999193.510,-606580.472,16.039,27.073
129,487.73016549458697,109.65009891995400,88.648,999196.832,-606580.394,13.289,27.073
130,492.49410921745385,130.64331101450568,88.891,999200.447,-606583.497,12.375,27.073
131,497.25805294033330,129.81974827034330,89.133,999204.061,-606586.600,12.664,27.073
132,500.49302869193320,128.99618552651933,89.336,999206.576,-606588.635,12.781,27.073
133,503.72800444362366,143.23517969059165,89.563,999209.090,-606590.671,13.188,27.073
134,507.94253536806423,157.47417385488490,89.695,999210.704,-606594.564,14.984,32.159
135,512.15706629265696,157.17102998715828,89.875,999212.319,-606598.457,16.555,32.159
136,515.81971527688836,156.86788611985949,89.875,999213.758,-606601.825,17.680,32.159
137,519.48236426111976,136.53966900667254,89.891,999215.197,-606605.193,18.445,32.159
138,522.31809897795017,116.21145189348560,89.875,999217.741,-606606.446,18.531,32.159
139,525.15383369478059,101.85753115430138,90.039,999220.285,-606607.698,17.141,32.159
140,528.07900554185608,87.50361041630588,90.258,999223.207,-606607.571,16.516,32.159
141,531.00417738904287,103.13498470828408,90.734,999226.130,-606607.443,15.227,32.159
142,533.99979396799426,118.76635899809766,90.758,999228.756,-606608.885,15.359,32.159
143,536.99541054688973,131.43918205742136,90.820,999231.382,-606610.327,15.344,32.159
144,541.72525318044529,144.11200511673636,91.109,999234.154,-606614.159,15.570,30.344
145,546.45509581397482,144.11200511673638,91.320,999236.927,-606617.991,15.938,30.344
146,551.18493844753039,144.50359742582063,91.438,999239.699,-606621.823,17.625,30.344
147,555.40889258474590,144.89518973411217,91.797,999242.129,-606625.278,17.883,30.344
148,559.63284672179918,135.59626970260888,91.781,999244.558,-606628.734,18.844,30.344
149,563.45035631230417,126.29734967039658,91.836,999247.634,-606630.994,19.070,30.344
150,567.26786590290294,114.39253188101164,92.031,999250.711,-606633.254,18.992,30.344
151,569.94735209340888,102.48771409241296,92.188,999253.327,-606633.833,18.469,30.344
152,572.62683828380113,123.26701194079838,92.164,999255.943,-606634.412,18.852,30.344
153,576.85090459582307,144.04630978891470,92.281,999258.423,-606637.832,18.117,30.344
154,581.07497090784500,136.35370708807346,92.156,999260.904,-606641.251,18.781,30.344
155,585.67199904612517,128.66110438768547,92.266,999264.493,-606644.123,18.742,30.344
156,590.26902718431438,132.18697235902891,92.555,999268.083,-606646.995,18.148,30.344
157,593.62983082721519,135.71284032922622,92.648,999270.429,-606649.400,18.477,30.344
158,596.99063447003266,135.71284032922622,92.734,999272.776,-606651.806,19.000,30.344
159,600.35143811293347,140.06747793779860,92.719,999275.123,-606654.212,20.594,30.344
160,603.72382733865709,144.42211554429835,92.828,999277.085,-606656.955,20.922,30.344
161,607.09621656435377,144.42211554429835,92.945,999279.047,-606659.698,21.055,30.344
162,610.46860579007739,134.04782416211310,93.070,999281.009,-606662.441,21.664,30.344
163,615.46213384962653,123.67353277817782,93.336,999285.165,-606665.209,21.008,30.344
164,620.45566190927264,126.46002337820956,93.555,999289.320,-606667.978,20.383,30.344
165,625.24361015009174,129.24651397905231,93.672,999293.028,-606671.007,20.586,30.344
166,630.03155839082069,145.52238149693525,93.797,999296.736,-606674.036,21.227,30.344
167,633.50024394163427,161.79824901529091,93.750,999297.820,-606677.331,21.852,30.344
168,636.96892949241146,161.79824901529091,93.852,999298.903,-606680.627,22.578,30.344
169,640.43761504322504,154.36862329615244,93.898,999299.987,-606683.922,22.844,30.344
170,644.10107082442437,146.93899757819361,94.180,999301.985,-606686.992,23.023,30.344
171,647.76452660546261,146.93899757819361,94.523,999303.984,-606690.062,23.000,30.344
172,651.42798238666194,132.85971657270079,94.750,999305.982,-606693.133,22.961,30.344
173,655.35800674607844,118.78043556821802,95.141,999309.427,-606695.025,22.789,30.344
174,659.28803110555100,118.78043556821802,95.555,999312.871,-606696.917,22.469,30.344
175,663.21805546496751,112.02235651485718,95.914,999316.316,-606698.809,22.250,30.344
176,666.95197995962621,105.26427746200493,96.109,999319.918,-606699.792,22.188,30.344
177,670.68590445439725,124.99439638986856,96.297,999323.520,-606700.775,21.938,30.344
178,674.65846866981769,144.72451531913757,96.094,999325.815,-606704.018,22.070,30.344
179,678.63103288526588,132.72871740254695,96.203,999328.109,-606707.261,21.953,30.344
180,681.60615993293015,120.73291948574968,96.211,999330.666,-606708.782,21.914,30.344
181,684.58128698065400,131.11812119674715,96.297,999333.223,-606710.302,21.844,30.344
182,689.53124564141513,139.09815054362426,96.625,999336.305,-606714.176,21.641,31.783
183,694.29842522013507,161.39575492751194,96.820,999339.574,-606717.645,21.703,31.783
184,696.81743434040754,186.09853167323996,96.664,999339.307,-606720.150,22.078,31.783
185,699.33644346066774,151.08976890461162,96.586,999339.039,-606722.655,22.148,31.783
186,702.32324584538867,116.08100613830270,96.758,999341.722,-606723.968,22.063,31.783
187,705.31004823016076,109.41495311973883,96.977,999344.405,-606725.281,21.898,31.783
188,709.63197294559939,102.74890010109497,97.172,999348.620,-606726.235,21.719,31.783
189,713.95389766095025,117.69548019293630,97.555,999352.835,-606727.189,21.445,29.721
190,717.69579179298171,132.64206028325091,97.531,999355.588,-606729.723,21.414,29.721
191,721.43768592509878,127.44561135103805,97.500,999358.340,-606732.258,21.500,29.721
192,725.71349787981364,122.24916241984521,97.469,999361.957,-606734.540,21.586,29.721
193,729.98930983442972,112.95362402578267,97.586,999365.573,-606736.821,21.563,29.721
194,733.23901547546609,103.65808563130392,97.953,999368.731,-606737.589,20.602,29.721
195,736.48872111650235,119.03137833082295,98.023,999371.888,-606738.356,20.547,29.721
196,741.15826836254917,134.40467103135194,98.375,999375.224,-606741.623,19.969,29.721
197,745.82781560859428,155.05352115399509,98.719,999378.560,-606744.891,19.898,29.721
198,749.83279671775972,175.70237127562825,98.727,999378.861,-606748.885,20.414,29.721
199,753.83777782692516,154.69801767129746,98.805,999379.161,-606752.878,21.125,29.721
200,757.38055936194189,133.69366406631639,98.852,999381.722,-606755.326,21.516,29.721
201,760.92334089704286,107.81069885844224,98.828,999384.284,-606757.773,21.648,29.721
202,765.47042540635630,81.92773365111540,98.914,999388.786,-606757.134,21.305,29.721
203,770.01750991555446,88.98712904456292,99.141,999393.288,-606756.496,21.117,29.721
204,774.74291741250192,85.20346575662732,99.438,999397.987,-606756.994,21.055,29.721
205,777.55102024594112,74.36040707482113,99.727,999400.691,-606756.237,20.484,29.721
206,780.35912307926822,94.08062800850603,100.094,999403.395,-606755.480,18.586,29.721
207,782.86587958953965,113.80084894197422,100.008,999405.689,-606756.491,18.938,29.721
208,785.37263609991771,124.40767436646462,100.180,999407.982,-606757.503,17.883,29.721
209,789.94627123716896,135.01449979097620,100.164,999411.216,-606760.738,18.078,29.721
210,794.51990637450240,150.59378806548580,100.523,999414.449,-606763.973,16.602,29.721
211,797.91003219389211,166.17307634027603,100.273,999415.259,-606767.265,19.125,29.721
212,801.30015801316881,166.17307634027603,100.469,999416.069,-606770.556,20.953,29.721
213,804.69028383255852,158.09704175914106,100.484,999416.879,-606773.848,22.031,29.721
214,808.52029410485659,150.02100717658158,100.813,999418.793,-606777.166,22.898,29.721
215,812.35030437711202,150.02100717658158,101.109,999420.707,-606780.483,23.289,29.721
216,816.18031464941009,145.87231967856616,101.328,999422.621,-606783.801,23.273,29.721
217,820.90033849996803,141.72363217947833,101.461,999425.545,-606787.506,23.539,29.721
218,825.62036235036260,141.72363217947833,101.797,999428.469,-606791.212,24.039,29.721
219,830.34038620092053,142.89663450563006,102.008,999431.392,-606794.917,24.547,29.721
220,834.97171335200971,144.06963683189878,102.539,999434.110,-606798.667,24.594,29.721
221,839.60304050309901,123.77388926556571,102.859,999436.828,-606802.417,24.547,29.721
222,843.74866732777343,103.47814170001500,103.188,999440.859,-606803.384,24.336,29.721
223,847.89429415247503,122.31346091763191,103.563,999444.891,-606804.350,23.555,29.721
224,850.81864127012034,141.14878013357836,103.734,999446.725,-606806.627,22.656,29.721
225,853.74298838783852,171.91564656534453,103.914,999448.559,-606808.905,21.430,29.721
226,856.98366533525132,179.88970434715017,103.703,999447.310,-606811.895,22.656,29.721
227,860.63748407928142,137.78370620586855,103.938,999448.732,-606815.261,21.430,29.721
228,864.06885535055790,118.47051671497240,104.133,999451.748,-606816.896,20.555,29.721
229,867.50022662193680,125.14920850150259,104.492,999454.765,-606818.532,20.867,29.721
230,871.53340988066066,131.82790028843135,104.688,999457.770,-606821.222,21.398,29.721
231,875.56659313922012,129.81585549237485,105.055,999460.775,-606823.911,21.797,29.721
232,879.83642739879178,127.80381069686186,105.352,999464.149,-606826.529,22.031,29.721
