vertex_index,distance,angle,elev,x,y,relief,velocity
0,0.00000000000000,81.77469153726386,52.625,999470.546,-606064.927,29.891,7.728
1,4.19522655499835,81.77469153816438,52.820,999474.698,-606064.327,29.586,6.808
2,8.39045311009526,40.17637407498029,53.266,999478.850,-606063.727,28.898,6.808
3,11.67710095910747,358.57805660988123,53.273,999478.769,-606060.441,28.609,6.808
4,14.96374880812256,348.34713029542559,53.172,999478.687,-606057.155,28.117,6.808
5,18.46519351761123,338.11620398251318,52.906,999477.382,-606053.906,27.922,6.808
6,21.96663822694847,338.11620398251318,52.875,999476.077,-606050.657,27.695,6.808
7,25.46808293643714,344.40261938677980,52.875,999474.772,-606047.408,27.477,6.808
8,29.06347755567659,350.68903479249059,52.922,999474.190,-606043.860,26.719,6.808
9,32.65887217489721,38.07521425631569,53.000,999473.609,-606040.312,26.656,6.808
10,36.82394319002683,100.14701373913213,52.688,999477.761,-606039.982,25.375,6.808
11,40.33446481047413,114.83263375817673,52.555,999480.946,-606041.457,25.008,6.808
12,43.84498643087255,75.45073064159726,52.523,999484.132,-606042.931,24.578,6.808
13,48.01523586974196,36.06882752587989,52.289,999486.588,-606039.560,23.023,6.808
14,52.18548530861138,70.09546233609512,52.219,999489.043,-606036.189,21.922,6.808
15,55.00212617972188,104.12209714602147,52.273,999491.774,-606036.877,21.367,6.808
16,57.81876705094526,106.42021638324687,52.461,999494.506,-606037.564,20.219,6.808
17,60.57025010172444,108.71833562190911,52.602,999497.112,-606038.447,20.258,6.808
18,63.32173315254096,113.61614161154623,52.703,999499.718,-606039.330,19.711,6.808
19,66.24876666364324,118.51394760103651,52.922,999502.290,-606040.727,19.234,6.808
20,69.17580017480110,124.24454250640783,53.031,999504.862,-606042.124,19.328,6.808
21,72.71478139740866,129.97513741066120,53.164,999507.574,-606044.398,19.383,6.808
22,76.25376261985222,138.88967990433295,53.445,999510.286,-606046.672,18.742,6.808
23,79.61037982891200,147.80422239949164,53.633,999512.074,-606049.512,18.820,6.808
24,82.96699703800827,136.80147859640127,53.797,999513.863,-606052.353,20.203,6.808
25,86.82322471615549,125.79873479264216,54.133,999516.990,-606054.608,19.688,6.808
26,90.67945239437083,122.42838706041827,54.406,999520.118,-606056.864,19.344,6.808
27,94.22899023280694,119.05803932785793,54.563,999523.221,-606058.588,19.406,6.808
28,97.77852807140135,126.11775861758096,54.766,999526.324,-606060.312,18.906,6.808
29,100.69485576781931,133.17747790610514,54.914,999528.450,-606062.307,18.906,6.808
30,103.61118346415753,143.96393390389065,55.063,999530.577,-606064.303,18.953,6.808
31,108.02161861399500,159.67929392421681,55.203,999532.458,-606068.292,19.508,6.808
32,112.45918337305318,169.37686484058105,55.188,999533.636,-606072.570,20.578,6.808
33,115.15856798031383,157.57687422581833,55.195,999533.912,-606075.256,21.133,6.808
34,117.77072891283709,141.00821671540572,55.281,999535.555,-606077.286,21.195,6.808
35,120.38288984543354,140.33835671739129,55.359,999537.199,-606079.316,21.328,6.808
36,125.06615291052854,143.34915515142725,55.500,999540.230,-606082.886,21.563,6.808
37,127.66643057641949,147.02981358356135,55.516,999541.645,-606085.068,22.109,6.808
38,130.26670824224706,118.09126877289383,55.570,999543.060,-606087.249,22.086,6.808
39,133.04067821990927,89.15272395994812,55.617,999545.834,-606087.208,21.539,6.808
40,135.81464819757321,99.87325120994964,55.844,999548.607,-606087.167,20.563,6.808
41,140.54023559493947,104.77809954864850,56.102,999553.031,-606088.830,20.164,6.808
42,144.95867378766974,118.93578543063713,56.453,999557.395,-606089.518,19.328,6.808
43,148.72018728757729,158.81192052295833,56.328,999559.868,-606092.353,20.016,6.808
44,151.34571430188572,178.71469082075771,56.164,999559.927,-606094.978,20.570,6.808
45,153.97124131607777,200.80172332575057,56.016,999559.985,-606097.603,21.117,6.808
46,157.27514603868383,222.88875583071933,55.781,999557.737,-606100.023,22.602,6.808
47,160.57905076112539,207.77039665315584,55.844,999555.488,-606102.444,23.477,6.808
48,163.34691287108768,192.65203747682068,56.031,999554.882,-606105.145,23.906,6.808
49,166.11477498107547,170.83384715580857,56.266,999554.276,-606107.845,24.313,6.808
50,170.75906328219304,143.14949026357851,56.766,999556.667,-606111.827,24.688,6.808
51,173.41562543261165,137.28332369438778,56.961,999558.469,-606113.779,24.672,13.230
52,176.07218758311578,129.51358360927631,57.102,999560.271,-606115.730,24.727,13.230
53,181.00852499747407,115.48401063569298,57.281,999564.469,-606118.328,25.047,13.230
54,184.96971612466928,136.72887346169276,57.422,999568.209,-606119.632,24.391,13.230
55,188.31501983804745,180.96676946247641,57.500,999569.118,-606122.851,25.258,13.230
56,192.17074039604941,197.69996974990292,57.609,999567.946,-606126.524,26.281,13.230
57,196.02646095394039,200.85568491570723,57.922,999566.774,-606130.198,26.961,13.230
58,199.68527639054608,204.01140008208117,58.281,999565.285,-606133.540,27.484,13.230
59,203.34409182719912,187.44668768970689,58.938,999563.796,-606136.882,28.180,13.230
60,206.55348521967565,170.88197529649992,59.156,999564.305,-606140.051,28.344,13.230
61,209.76287861215212,171.47586258041306,59.320,999564.813,-606143.220,28.531,13.230
62,212.52858191811077,172.06974986432621,59.469,999565.195,-606145.959,28.758,13.230
63,215.29428522406943,161.05447606769573,59.711,999565.576,-606148.698,29.398,13.230
64,220.09777340813929,135.01212468606047,59.813,999567.975,-606152.860,29.758,13.230
65,222.87560456530329,119.98504710165567,59.539,999570.381,-606154.248,29.438,13.230
66,225.65343572236645,114.49050718275790,59.336,999572.787,-606155.636,29.125,13.230
67,228.28941310680725,108.99596726206379,59.281,999575.280,-606156.494,29.164,13.230
68,230.92539049121015,129.70907819548776,59.188,999577.772,-606157.352,29.023,13.230
69,235.77547500348723,182.99082708117848,59.406,999580.166,-606161.570,29.156,13.230
70,238.37907263530073,215.55946503150400,59.336,999578.652,-606163.689,29.438,13.230
71,240.98267026720893,257.64356382860910,59.594,999577.138,-606165.807,30.000,13.230
72,243.90591800839644,254.49262045512407,59.867,999574.599,-606164.357,30.273,13.230
73,246.42794109002077,175.36337292118455,60.414,999573.367,-606166.557,30.742,13.230
74,249.10365931261833,132.17154922751766,60.344,999575.034,-606168.650,30.750,13.230
75,251.83781750363829,122.87393089645524,60.266,999577.330,-606170.135,30.742,13.230
76,254.57197569465828,114.89669122249801,59.992,999579.626,-606171.619,30.516,13.230
77,258.04665964801376,134.46266222292149,59.750,999582.951,-606172.630,30.805,13.230
78,261.83816963774768,190.18232780220589,60.109,999584.122,-606176.236,31.352,13.230
79,265.44876243097912,223.56166974306933,60.797,999581.881,-606179.067,31.609,13.230
80,267.97927493911436,209.43498975424029,61.695,999579.978,-606180.735,31.844,13.230
81,270.91267165020764,142.49785802950748,62.117,999579.463,-606183.623,32.102,13.230
82,273.88737510714844,94.89029332844655,61.117,999582.427,-606183.877,31.953,13.230
83,276.86207856407935,83.97803638306632,61.086,999585.391,-606184.130,32.023,13.230
84,280.19615340135135,73.06577943880320,60.781,999588.581,-606183.159,31.953,13.230
85,283.53022823862335,109.35272396675846,60.984,999591.770,-606182.188,31.953,13.230
86,285.75470922553512,170.69138449053699,61.500,999593.026,-606184.024,32.023,10.103
87,289.38004966286127,195.74310048660993,61.625,999592.042,-606187.514,32.063,13.230
88,293.00539010007537,197.11059200881817,61.813,999591.058,-606191.003,32.148,13.230
89,297.10627932398535,157.50336207788979,62.461,999589.759,-606194.892,32.445,13.230
90,300.84400655904955,110.94494752588898,62.500,999593.103,-606196.562,32.680,10.103
91,305.53607525213289,119.32776080005436,63.008,999597.627,-606197.805,32.680,10.103
92,309.12037361132690,137.66012782885062,63.859,999600.236,-606200.263,33.133,10.103
93,312.36073941596987,142.02598848581241,64.289,999602.230,-606202.817,33.328,10.103
94,315.60110522063297,142.56135782854292,64.695,999604.224,-606205.371,33.492,10.103
95,320.17618353969971,137.83069834293514,65.211,999606.971,-606209.030,33.711,10.103
96,325.11055082501929,131.84406408659837,65.734,999610.605,-606212.368,33.805,10.103
97,328.72031440968266,131.12345865845893,65.922,999613.324,-606214.742,33.859,10.103
98,332.33007799433494,136.32824547249896,66.227,999616.044,-606217.116,33.938,10.103
99,336.09826450766326,141.53303228468485,66.500,999618.388,-606220.066,34.141,10.103
100,339.86645102090040,143.21848712400896,66.727,999620.732,-606223.016,34.266,10.103
101,343.31172800901618,144.90394196467568,66.992,999622.713,-606225.835,34.414,10.103
102,346.75700499706500,138.56032154250678,67.438,999624.693,-606228.654,34.719,10.103
103,351.36622725168161,109.65172454673866,67.781,999628.107,-606231.751,34.930,10.103
104,354.48139920088562,87.08674797494628,67.914,999631.218,-606231.593,34.930,10.103
105,357.59657114996742,123.52093869682923,68.164,999634.329,-606231.435,34.930,10.103
106,361.29147132022223,167.22036376255693,68.156,999635.596,-606234.906,35.445,16.766
107,365.89514584327031,167.44870117958337,67.961,999636.038,-606239.488,36.000,16.766
108,370.75659615908120,147.94378432466533,67.500,999637.668,-606244.068,36.766,16.766
109,375.72871217332835,120.94394022938533,67.414,999641.154,-606247.613,36.977,16.766
110,379.07393746752831,106.41211606119028,67.477,999644.363,-606248.558,37.109,16.766
111,382.41916276172822,143.63703733267172,67.609,999647.572,-606249.504,37.109,16.766
112,387.40148734157526,161.69056054959199,67.961,999647.497,-606254.485,37.234,16.766
113,391.69550112821344,130.67723621244758,68.109,999650.110,-606257.893,37.219,16.766
114,395.12040004332488,118.83530993033406,68.281,999653.111,-606259.545,37.078,16.766
115,398.54529895833434,116.50399704571194,68.852,999656.111,-606261.196,37.102,16.766
116,401.60417180498155,114.17268416062016,68.914,999658.901,-606262.449,36.922,16.766
117,404.66304465162864,147.08503039202859,69.375,999661.692,-606263.702,36.922,16.766
118,408.84293072050218,184.74669902427149,68.922,999661.692,-606267.881,36.914,16.766
119,411.37334392331530,189.49602142510591,68.719,999661.275,-606270.377,37.148,16.766
120,413.90375712612843,176.43000009992872,68.938,999660.857,-606272.873,37.211,16.766
121,417.66858649982282,163.36397877390274,69.859,999661.935,-606276.480,37.297,16.766
122,421.43341587355042,150.81154491407503,70.883,999663.013,-606280.087,37.070,16.766
123,424.69333925106753,138.25911105577720,71.039,999665.183,-606282.520,36.961,16.766
124,427.95326262867150,133.06836824603238,71.008,999667.354,-606284.952,36.922,16.766
125,431.06929178658203,127.87762543645128,70.969,999669.813,-606286.865,36.891,16.766
126,434.18532094456384,118.49447632865058,71.031,999672.273,-606288.779,36.867,16.766
127,436.90330153862470,109.11132722040681,71.227,999674.841,-606289.669,36.867,16.766
128,439.62128213257557,106.39866483542507,71.852,999677.409,-606290.558,36.820,16.766
129,443.71136779625118,103.68600245023445,73.406,999681.383,-606291.526,36.820,16.766
130,447.80145345981367,109.66738947346617,74.977,999685.357,-606292.494,36.805,16.766
131,451.27224130936190,115.64877649605464,76.281,999688.486,-606293.996,36.711,16.766
132,454.74302915875478,136.50558899756038,76.703,999691.615,-606295.499,36.703,16.766
133,458.40995284981960,179.69286179027094,76.500,999693.026,-606298.883,36.750,16.766
134,463.34015549034206,172.62691393726439,74.484,999691.177,-606303.453,36.664,16.766
135,466.93355487348390,123.63339437101359,73.734,999693.328,-606306.332,36.727,16.766
136,471.80148903570472,96.16626346362698,74.352,999698.051,-606307.513,36.727,16.766
137,475.17940167022118,101.89576506401112,74.766,999701.427,-606307.412,36.727,16.766
138,478.12342365154751,130.76469776798154,75.313,999704.085,-606308.679,36.781,16.766
139,481.38254301218785,171.89188121150264,74.969,999705.906,-606311.382,36.813,16.766
140,485.09270425584077,168.84670649919869,74.234,999704.774,-606314.916,36.906,16.766
141,487.54538380027458,120.15337528310830,74.570,999706.353,-606316.793,36.992,16.766
142,491.13540558941003,121.88912393007131,75.180,999709.884,-606317.439,36.992,16.766
143,495.89058955719560,146.89121315421636,75.789,999712.718,-606321.257,37.203,16.578
144,499.91718604971766,144.38404970853065,75.617,999714.709,-606324.757,37.367,16.578
145,504.05782046336992,138.40093036575465,75.992,999717.458,-606327.854,37.352,16.578
146,508.19845487703191,125.63155277880477,76.789,999720.207,-606330.950,37.242,16.578
147,512.31611541488405,117.05111200023872,77.758,999724.002,-606332.550,37.250,16.578
148,516.21971638809362,141.93091848040879,78.125,999727.339,-606334.574,37.289,16.578
149,520.08800016172108,170.31816286554243,77.648,999728.495,-606338.266,37.383,16.578
150,523.23594491256188,178.01453757893134,77.234,999728.604,-606341.412,37.336,16.578
151,526.38388966329035,163.09940403136352,77.109,999728.713,-606344.558,37.266,16.578
152,528.66783847099612,124.72782076085397,77.445,999729.917,-606346.499,37.250,16.578
153,533.19993325347434,110.40883442631105,78.078,999734.361,-606347.385,37.250,16.578
154,538.15152507578250,143.52295683315572,80.242,999738.669,-606349.827,37.102,16.578
155,541.72800588948974,165.91962235302566,79.164,999739.443,-606353.318,36.922,18.976
156,544.53505684012202,164.33962885554519,79.633,999740.201,-606356.021,36.656,18.976
157,547.34210779075431,158.58461303901458,79.586,999740.959,-606358.724,36.547,18.976
158,550.63984770518073,152.82959722384547,80.039,999742.465,-606361.658,36.352,18.976
159,553.93758761965762,156.38877181540195,80.656,999743.970,-606364.592,35.969,18.976
160,556.61751823206157,159.94794640676591,81.484,999744.889,-606367.109,35.680,18.976
161,559.29744884442562,153.84524089198666,81.938,999745.808,-606369.627,35.375,18.976
162,561.80490732397584,147.74253537420378,82.328,999747.146,-606371.747,35.000,18.976
163,564.31236580348968,131.02613822804503,82.336,999748.485,-606373.867,34.828,18.976
164,566.83382861798782,114.30974108251561,82.227,999750.783,-606374.905,34.789,18.976
165,569.35529143243798,127.10998513350836,82.266,999753.081,-606375.943,34.789,18.976
166,572.84789895354709,149.56991698454999,81.961,999755.330,-606378.615,34.883,18.976
167,577.02071306212360,143.76131616746619,82.094,999756.809,-606382.517,35.070,18.976
168,579.87366624450715,128.29302755081440,82.523,999759.049,-606384.285,35.250,18.976
169,582.72661942698210,130.33695736883644,83.430,999761.288,-606386.053,35.266,18.976
170,585.32242268161463,128.56873062741428,84.055,999763.205,-606387.803,35.266,18.976
171,587.84461807318849,176.13708882490047,84.953,999765.277,-606389.241,35.219,18.976
172,591.93746260985142,227.51760358140407,85.492,999762.259,-606392.005,34.984,18.976
173,596.03030714650720,203.96786081422755,86.695,999759.241,-606394.769,34.750,18.976
174,598.88073722949207,180.41811804702380,87.297,999759.220,-606397.619,34.539,18.976
175,601.73116731259256,151.87535856249846,88.141,999759.199,-606400.470,34.086,18.976
176,602.32459248451551,139.04901463046772,88.141,999759.695,-606400.796,34.086,18.976
177,607.26068763705678,140.06179442433196,88.164,999761.799,-606405.261,33.703,18.976
178,611.13774193733241,108.84844008873868,86.930,999764.961,-606407.504,33.531,18.976
179,613.94130948169050,92.33872151059722,86.391,999767.762,-606407.619,33.531,18.976
180,616.74487702604858,91.08233595519857,86.063,999770.564,-606407.733,33.531,18.976
181,619.85095002977050,89.82595039980326,86.211,999773.670,-606407.724,33.531,18.976
182,622.95702303360883,108.86212356533294,87.000,999776.776,-606407.714,33.531,18.976
183,627.60038091985678,158.13520028536257,87.938,999780.440,-606410.566,33.227,18.976
184,632.22529449045715,194.12540448841753,87.141,999779.766,-606415.142,33.328,18.976
185,634.78587558708955,199.87870513696924,87.000,999778.896,-606417.550,33.438,18.976
186,637.34645668372195,170.69316286484130,86.922,999778.025,-606419.958,33.461,18.976
187,641.59324543768139,120.06519107236566,86.969,999780.668,-606423.282,33.359,18.976
188,645.71728613937216,104.76251819904719,87.078,999784.746,-606423.900,33.359,18.976
189,649.08665987267079,110.90227484607639,87.219,999787.893,-606425.102,33.055,18.976
190,652.45603360596942,122.85305752714414,87.789,999791.041,-606426.305,32.844,18.976
191,657.30121685511733,150.34935491485837,88.523,999794.479,-606429.719,32.617,18.976
192,660.30599556766538,180.53342935417635,87.977,999795.211,-606432.633,32.367,18.976
193,663.24306329855006,195.17198908655072,87.867,999794.442,-606435.468,32.281,18.976
194,666.18013102954717,182.29971706312119,88.406,999793.674,-606438.302,31.953,18.976
195,671.03392199869188,153.59490652641782,89.000,999794.564,-606443.074,31.086,18.976
196,673.65985961850663,137.76236801293334,89.188,999796.329,-606445.018,31.172,18.976
197,676.28579723815687,133.72853386130575,89.500,999798.095,-606446.962,31.250,18.976
198,680.83706354317053,129.69469970902779,89.844,999801.597,-606449.869,31.336,18.976
199,685.38832984810983,119.85187915042046,90.484,999805.099,-606452.776,31.539,18.976
200,688.24731668748791,110.00905859128092,90.281,999807.785,-606453.754,31.539,18.976
201,691.10630352682608,114.50695052899734,90.852,999810.471,-606454.732,31.688,18.976
202,694.11574377394129,146.30998854501260,91.148,999813.103,-606456.192,31.844,18.976
203,698.38141454158108,188.96673398607015,91.219,999813.578,-606460.431,31.141,18.976
204,701.46288223843317,204.31833334947933,91.359,999812.309,-606463.239,30.234,18.976
205,704.54434993539132,180.39379833759867,93.695,999811.040,-606466.047,28.695,18.976
206,707.59790601056579,156.46926332516239,93.086,999812.259,-606468.847,28.602,18.976
207,710.65146208578676,143.30293414977837,93.805,999813.478,-606471.646,28.656,18.976
208,713.18410255949289,130.13660497539576,93.281,999815.414,-606473.279,28.766,19.918
209,715.71674303319901,107.95692266667415,93.430,999817.351,-606474.911,28.938,19.918
210,719.45494971920800,62.72735733054340,91.984,999821.079,-606474.636,28.938,19.918
211,722.21431422261230,39.67747430406445,91.461,999822.840,-606472.512,28.766,19.918
212,724.97367872609084,36.97270049051942,91.789,999824.602,-606470.389,28.656,18.976
213,728.22355027892399,34.26792667461823,93.234,999826.432,-606467.703,28.695,18.976
214,731.47342183178773,45.55320502104374,94.531,999828.262,-606465.017,29.328,18.976
215,734.94345636972787,95.95016573930548,95.672,999831.167,-606463.119,30.234,18.976
216,736.83339777534491,142.00220829539131,95.758,999832.502,-606464.457,29.328,18.700
217,740.48764611322372,151.92583048061911,95.602,999834.387,-606467.587,28.695,18.700
218,743.30908756003396,154.90909248017141,94.391,999835.583,-606470.142,28.656,18.700
219,746.13052900684420,170.15802475655644,94.125,999836.780,-606472.698,28.766,18.968
220,748.79259518133972,185.40695703305957,93.719,999836.529,-606475.348,28.938,18.968
221,751.45466135571940,167.77159951861961,93.523,999836.278,-606477.998,29.133,18.968
222,753.91517885712267,114.13657789036296,93.641,999837.503,-606480.132,29.391,18.968
223,757.78588394995916,78.13691377564392,93.898,999841.291,-606479.336,29.266,18.968
224,761.65658904270560,100.81108476199446,94.688,999845.079,-606478.540,29.266,18.968
225,764.49546639634684,123.48525575034510,95.109,999847.447,-606480.107,29.242,18.968
226,767.33434375005243,120.71709251163016,95.750,999849.815,-606481.673,28.891,18.968
227,772.08790924030131,146.25147175160009,97.836,999854.014,-606483.901,28.742,18.968
228,776.12053701769389,214.00805972830571,97.195,999854.397,-606487.915,29.141,18.968
229,778.91098811775964,253.46210522534659,95.805,999851.722,-606488.710,29.336,18.968
230,781.70143921782540,256.55230072580383,95.398,999849.047,-606489.504,29.438,18.968
231,786.60909695018017,260.61599372835116,95.500,999844.219,-606490.386,29.516,18.968
232,789.64576394005667,215.51183447033600,96.352,999841.215,-606490.830,29.516,18.968
233,792.95294026477950,149.26957966714829,98.438,999841.821,-606494.082,29.953,18.968
